I II V1 V2 V3 V4 V5 V6
10 20 24 73 36 33 23 15
12 16 22 70 38 32 21 17
18 21 23 73 40 34 23 18
11 28 21 71 38 34 22 17
7 24 22 68 35 31 21 16
21 26 21 67 35 31 22 15
18 29 24 71 39 36 26 16
12 22 28 70 41 38 29 19
16 24 27 67 39 36 29 18
8 21 30 70 42 40 33 22
3 21 31 66 41 39 32 21
5 18 28 61 37 34 28 19
3 17 26 58 36 32 24 16
1 13 27 54 35 33 23 16
1 13 28 52 35 31 24 17
8 16 28 52 36 33 26 18
15 23 25 48 32 32 25 14
5 12 22 40 28 28 20 10
3 7 24 39 30 29 22 12
2 11 25 43 31 31 26 14
0 10 22 36 28 28 22 12
-1 11 20 31 26 23 19 11
2 15 17 29 23 21 17 8
2 13 16 23 20 19 13 6
7 8 16 18 15 16 10 3
9 9 15 15 13 16 10 3
8 12 15 19 13 19 10 2
5 7 18 18 13 18 9 3
9 9 15 14 10 14 5 1
9 13 15 17 11 15 7 1
-2 11 18 20 11 17 8 2
-4 2 18 18 12 13 7 3
-6 5 19 17 12 15 8 3
-8 7 17 12 8 12 5 1
-5 0 14 6 4 9 2 -1
2 -2 11 7 3 7 3 -2
-7 -1 12 10 3 8 5 -3
-8 -4 14 9 3 7 6 -2
-9 -3 17 12 6 10 9 0
-2 8 18 13 7 11 11 0
0 8 19 11 5 10 9 -1
-5 -5 18 6 2 5 6 -2
-10 -2 18 9 3 6 5 -2
-10 5 16 7 0 3 0 -6
-9 -3 15 6 -3 -1 -6 -6
-5 -2 15 7 -1 -2 -5 -7
-14 -1 17 10 -1 -1 -3 -7
-17 -8 20 10 -1 -1 -4 -6
-22 -13 19 10 -1 -2 -5 -7
-19 -5 19 14 0 -1 -7 -8
0 10 22 18 3 3 -6 -6
6 15 24 19 5 4 -4 -1
-3 8 18 16 2 0 -6 -5
-10 -2 14 12 -2 -3 -9 -9
-20 -14 11 6 -5 -6 -11 -11
-11 -12 12 7 -3 -5 -10 -9
-6 3 12 9 -4 -4 -10 -12
-7 3 14 10 -2 -4 -11 -10
-11 1 17 13 0 -2 -7 -8
-8 2 18 16 2 2 -4 -7
-2 1 19 17 3 2 -4 -7
-8 -3 21 16 5 4 -2 -2
-6 7 18 16 3 3 -4 -6
-4 10 20 16 3 2 -4 -6
-1 6 20 14 2 0 -5 -5
3 3 21 15 4 3 -2 -4
-1 7 22 19 6 7 1 -4
-2 1 22 15 3 5 -1 -4
-7 -4 21 14 2 1 -2 -4
-9 2 21 17 5 1 2 -3
-6 6 20 15 4 0 0 -3
1 0 18 9 4 1 1 0
-1 9 21 14 9 8 8 4
-7 4 17 9 6 6 5 1
-4 0 14 5 2 2 0 -2
-12 -3 16 8 5 7 5 1
-9 5 17 12 7 9 8 -1
-2 8 15 10 6 8 5 -1
-5 7 16 10 5 7 6 0
3 6 12 7 2 5 4 -4
4 1 11 5 0 4 3 -5
-1 -5 13 4 2 4 6 1
-7 7 16 10 7 10 12 5
-11 4 20 14 10 14 14 8
-7 0 17 9 7 10 8 5
0 8 14 6 5 9 6 3
4 11 12 8 4 9 1 -1
7 8 9 6 -1 3 -7 -4
3 1 8 6 -3 0 -7 -4
-1 1 9 7 -3 2 -6 -5
-1 2 11 7 -5 1 -7 -4
-7 -4 9 2 -6 0 -6 -3
-13 -1 12 4 -1 7 0 0
-9 8 9 1 -3 7 -1 -3
-7 4 9 -1 -6 3 -4 -2
-10 3 12 5 -1 6 1 1
-3 8 10 5 -3 7 0 -2
2 3 12 1 -3 5 -1 -1
4 2 12 1 -4 3 -3 -1
-2 6 7 -1 -7 1 -7 -7
-10 2 11 1 -6 2 -6 -5
-4 4 14 0 -3 -2 -4 -1
0 20 15 2 -3 -3 -3 0
6 27 15 1 -3 -4 -4 -1
4 23 21 6 1 0 -1 4
-16 14 22 8 3 3 0 4
-18 16 23 13 4 8 1 4
-14 9 20 9 2 3 -3 2
-10 11 20 9 1 4 -1 2
-8 11 18 10 3 6 1 1
-10 15 19 10 2 7 1 2
-10 16 27 11 8 13 7 9
-6 19 26 8 7 13 6 8
-5 19 22 4 4 9 1 5
-5 17 22 4 2 6 0 5
-8 13 22 6 3 5 1 6
-19 14 17 4 -1 4 -3 1
-15 17 18 2 1 4 -4 4
-9 23 16 0 1 6 -1 7
2 37 13 1 4 12 4 9
7 40 9 0 4 11 6 10
11 35 7 -3 3 7 2 10
16 39 7 -1 4 8 -1 7
12 32 0 -5 2 7 -3 5
15 26 -3 -11 -3 2 -6 3
23 36 -4 -9 0 7 -1 8
18 45 -5 -7 2 9 1 8
-5 18 -10 -11 -3 3 -3 5
-2 13 -14 -18 -11 -3 -10 -1
12 27 -10 -12 -5 1 -5 2
12 21 -7 -10 -2 4 -2 7
5 15 -9 -14 -3 2 -2 8
10 14 -13 -16 -6 -1 -4 4
16 16 -14 -15 -8 -1 -5 2
23 10 -14 -16 -10 -4 -9 0
22 11 -13 -15 -9 -3 -9 -1
8 17 -11 -10 -9 0 -8 -3
3 13 -8 -9 -8 -3 -10 -2
1 12 -4 -8 -8 -2 -9 -1
-13 5 0 -5 -8 -2 -9 -2
-11 -4 -1 -10 -12 -10 -16 -5
-4 -10 -3 -13 -14 -17 -17 -6
-4 -10 -4 -13 -14 -16 -16 -7
-10 -7 0 -9 -12 -12 -12 -5
-12 -9 1 -9 -13 -10 -12 -5
-7 -9 -3 -12 -13 -9 -13 -8
-11 -7 -5 -11 -14 -9 -13 -10
-18 -16 -3 -14 -15 -9 -13 -9
-20 -10 0 -11 -13 -8 -12 -7
-9 -3 -1 -9 -15 -9 -13 -9
-3 -6 -7 -16 -22 -16 -20 -15
-8 -18 -4 -16 -18 -15 -19 -12
-12 -11 -2 -10 -15 -11 -17 -11
-11 -8 0 -10 -16 -12 -18 -10
-11 -8 0 -11 -16 -13 -21 -10
-22 -11 0 -9 -14 -12 -21 -8
-26 -12 2 -6 -14 -12 -21 -9
-18 -16 1 -10 -16 -15 -24 -11
-12 -18 0 -11 -17 -16 -23 -11
-11 -10 0 -8 -16 -14 -21 -10
-12 -14 -2 -11 -20 -18 -25 -13
-9 -11 -5 -17 -22 -21 -26 -13
-9 -12 -2 -13 -19 -16 -21 -10
-14 -14 -5 -17 -22 -19 -23 -13
-13 -17 -5 -18 -23 -20 -23 -12
-8 -7 -1 -13 -19 -13 -15 -7
-10 -2 -1 -8 -18 -11 -14 -7
-13 -4 -1 -9 -20 -15 -18 -10
-14 -8 2 -4 -17 -15 -21 -10
-8 0 8 5 -12 -13 -22 -12
-11 -5 19 17 -8 -15 -24 -14
-18 -8 30 29 -1 -14 -24 -11
-23 1 35 44 9 -8 -20 -10
-25 3 44 63 19 -1 -15 -6
-16 9 52 77 33 10 -9 1
-7 18 61 93 51 26 7 10
-10 35 75 110 75 52 31 24
-5 46 91 124 100 79 51 39
12 56 105 143 131 111 69 47
22 63 119 168 180 158 96 61
26 75 130 188 237 215 131 80
37 89 127 198 307 291 182 110
75 129 114 197 377 373 239 142
102 152 92 179 420 431 280 170
112 162 47 137 422 447 295 184
104 153 -16 66 371 413 283 183
91 131 -64 -20 268 326 234 155
76 93 -126 -151 142 213 169 120
67 70 -185 -295 7 98 106 88
44 50 -223 -394 -122 -16 44 56
18 27 -247 -469 -222 -99 -10 23
-6 -7 -248 -506 -285 -150 -47 -2
-23 -28 -243 -526 -338 -195 -82 -31
-26 -48 -233 -517 -355 -216 -106 -49
-39 -62 -223 -489 -345 -222 -119 -58
-49 -69 -217 -454 -331 -220 -125 -63
-51 -68 -216 -424 -320 -219 -133 -69
-51 -64 -214 -393 -300 -211 -133 -73
-50 -57 -200 -355 -268 -191 -123 -67
-43 -49 -190 -319 -242 -177 -117 -70
-40 -50 -181 -292 -220 -168 -116 -72
-38 -47 -165 -258 -193 -150 -106 -62
-38 -29 -146 -222 -171 -133 -94 -57
-36 -18 -126 -191 -150 -120 -87 -53
-34 -19 -103 -159 -128 -105 -79 -46
-31 -15 -84 -128 -109 -89 -67 -38
-25 -4 -71 -108 -97 -81 -63 -38
-17 -4 -59 -98 -87 -75 -58 -36
-17 -5 -47 -84 -77 -69 -52 -30
-22 0 -40 -71 -69 -66 -48 -30
-24 -6 -32 -61 -63 -65 -48 -30
-18 -15 -26 -55 -57 -64 -49 -28
-17 -8 -22 -44 -53 -58 -47 -30
-36 -12 -12 -32 -44 -49 -40 -25
-47 -12 -4 -25 -38 -44 -37 -21
-27 -9 -8 -23 -41 -47 -41 -28
-15 -5 -7 -19 -42 -47 -44 -33
-8 -8 -5 -18 -38 -45 -43 -30
-10 -14 0 -12 -33 -42 -39 -26
-12 -13 -2 -12 -35 -43 -39 -28
-7 -14 -5 -17 -38 -46 -42 -29
-8 -20 -3 -17 -36 -44 -40 -25
-3 -10 -2 -10 -35 -41 -38 -25
3 1 1 -7 -33 -39 -37 -26
3 -3 -1 -8 -35 -42 -41 -27
-11 -15 0 -4 -34 -40 -39 -27
-18 -19 0 -3 -35 -41 -39 -31
-22 -22 0 -4 -36 -41 -39 -30
-24 -21 0 -6 -38 -43 -38 -30
-16 -13 4 -2 -33 -37 -33 -25
-8 -12 2 -4 -33 -39 -36 -25
-14 -19 0 -9 -36 -43 -38 -26
-17 -18 0 -7 -37 -43 -38 -27
-7 -8 -1 -7 -36 -43 -40 -28
-2 -11 2 -4 -34 -42 -38 -25
-16 -16 4 1 -32 -39 -36 -25
-23 -12 6 6 -29 -37 -35 -25
-16 -16 5 3 -29 -39 -37 -23
-9 -13 5 3 -30 -40 -37 -21
-6 -5 3 4 -29 -38 -35 -24
-6 -9 2 1 -29 -39 -37 -23
-4 -15 2 0 -30 -40 -36 -20
-9 -16 -1 2 -33 -43 -39 -26
-10 -23 -2 0 -34 -47 -43 -29
-5 -25 -1 -2 -35 -48 -45 -29
-6 -17 1 5 -33 -46 -42 -29
-11 -6 6 13 -30 -43 -40 -27
-20 -9 11 18 -23 -37 -34 -20
-23 -12 10 19 -24 -40 -31 -19
-8 -7 7 19 -24 -43 -30 -21
-4 -8 0 14 -29 -49 -36 -25
-3 -13 0 13 -26 -46 -37 -21
-1 -9 0 19 -27 -44 -36 -23
3 -11 -1 19 -27 -46 -39 -26
2 -17 2 19 -27 -48 -42 -26
-2 -16 5 27 -23 -43 -40 -25
0 -9 7 33 -21 -42 -37 -25
5 -9 6 31 -20 -41 -36 -25
-5 -15 6 31 -21 -40 -36 -25
-4 -12 0 32 -21 -42 -41 -30
-4 -11 3 37 -17 -41 -41 -28
-3 -14 5 41 -13 -39 -39 -24
-4 -10 6 47 -10 -35 -37 -23
-4 -8 6 49 -9 -36 -36 -25
-3 -9 7 52 -8 -37 -37 -24
-1 -4 12 61 -1 -30 -32 -19
1 5 14 63 1 -29 -30 -20
-2 8 14 65 4 -25 -28 -17
0 5 15 71 8 -21 -23 -14
11 1 11 71 6 -24 -25 -19
12 1 10 72 6 -25 -27 -18
1 -2 13 77 10 -22 -23 -14
5 3 13 79 9 -22 -23 -16
8 5 16 81 13 -18 -19 -13
6 1 15 78 15 -18 -21 -12
5 8 12 82 18 -16 -21 -12
2 7 18 92 26 -10 -14 -8
3 5 18 95 30 -8 -11 -6
8 13 16 94 30 -7 -10 -6
5 18 20 100 33 1 -2 -1
6 14 21 97 34 1 0 1
8 12 19 95 37 4 2 5
8 15 19 95 38 6 4 2
3 16 20 95 38 5 2 0
12 13 21 94 37 0 1 0
21 20 21 99 40 0 1 0
9 28 25 104 45 7 4 2
1 23 22 98 42 6 2 2
1 23 21 95 41 5 2 3
7 26 19 97 45 11 7 5
16 21 18 91 41 9 6 5
16 18 17 87 40 8 7 8
11 21 16 90 40 11 10 8
8 17 17 90 41 13 12 8
13 19 20 89 42 15 14 11
18 26 22 94 44 19 16 14
17 31 21 93 42 19 16 12
13 24 20 89 44 21 16 15
15 24 17 83 41 18 14 14
24 29 18 85 42 20 17 14
20 24 18 83 42 20 16 14
14 13 15 78 41 18 14 15
15 20 15 80 40 21 16 15
15 24 15 80 41 21 17 14
21 20 15 76 38 18 13 13
21 25 18 79 41 22 17 16
14 34 17 76 40 22 15 12
14 30 15 69 39 21 14 13
16 26 16 69 42 24 17 16
13 30 16 70 43 25 19 14
12 36 14 66 40 22 18 13
12 36 13 62 39 23 20 15
18 30 14 65 40 27 25 17
20 28 16 62 41 26 27 16
17 21 19 60 41 27 27 19
16 29 18 60 39 26 26 17
15 31 18 59 37 23 26 14
15 23 20 56 39 20 28 18
13 21 19 53 38 19 27 19
14 23 15 50 34 17 20 14
11 21 13 42 30 14 14 12
3 12 17 40 35 19 17 17
-1 17 18 41 34 17 15 13
3 13 14 34 30 12 11 7
3 8 14 30 27 10 10 7
3 15 11 29 26 11 11 6
6 24 11 29 25 13 13 6
4 16 13 24 24 13 15 8
3 12 12 19 21 10 14 7
9 20 12 20 23 11 18 9
12 17 10 15 19 6 12 6
10 13 13 14 19 5 12 9
7 15 10 14 16 2 9 5
2 10 8 11 13 -1 4 1
-2 5 10 14 12 -2 4 3
-7 8 12 22 14 0 8 4
-10 7 12 26 12 0 6 3
-10 5 15 26 14 1 6 4
-13 7 15 28 14 1 6 3
1 12 12 25 12 -2 5 0
12 7 9 20 5 -8 0 -4
-4 -1 9 19 4 -10 1 -2
-9 3 9 20 5 -8 2 -2
-4 5 7 18 3 -11 0 -6
-8 -6 9 19 3 -12 -2 -6
-6 -2 14 26 8 -5 4 -1
-4 9 15 27 8 -7 2 -3
1 4 12 24 8 -9 -2 0
-1 0 10 24 6 -10 -1 -1
-19 -2 13 29 8 -10 3 2
-12 1 11 24 5 -16 -2 -2
5 0 7 21 2 -23 -4 -3
0 1 5 20 -2 -25 -9 -7
-8 -3 8 23 0 -22 -8 -7
-14 -9 12 25 3 -18 -8 -5
-7 0 15 31 7 -12 -2 -4
-8 4 16 33 7 -12 -2 -7
-3 -1 14 27 4 -16 -6 -9
-1 -2 13 26 3 -15 -3 -6
-4 7 13 29 6 -9 3 -2
-3 10 11 23 4 -11 -1 -4
0 1 10 23 5 -11 -3 -3
-3 -2 7 23 1 -14 -9 -7
-2 3 5 21 0 -15 -12 -8
-4 6 7 20 3 -13 -10 -6
-4 8 10 26 8 -6 -2 -3
-1 17 14 30 8 -4 0 -3
-4 4 12 25 6 -6 0 -3
2 4 13 25 9 -5 3 -1
2 15 15 30 14 1 7 2
2 17 7 20 5 -10 -4 -7
-1 2 8 18 5 -9 -3 -4
-3 7 8 21 7 -7 -3 -5
2 12 8 20 7 -7 -4 -5
0 2 5 16 4 -11 -9 -9
-6 -3 8 18 7 -7 -6 -9
-6 7 10 24 9 -3 -1 -6
0 11 14 26 14 2 4 1
3 4 11 20 11 -1 4 -2
8 7 10 18 11 -1 4 -3
4 10 12 20 15 2 6 0
3 6 14 20 16 2 6 4
7 10 10 16 10 -2 1 -2
6 12 10 16 11 0 2 -1
5 9 12 18 13 1 4 2
11 17 13 21 14 2 6 2
15 23 9 18 10 -1 -2 -4
19 20 8 16 11 -4 -1 -1
9 17 9 14 10 -9 -1 -1
6 18 11 16 14 -6 0 0
-1 7 9 15 14 -5 -3 -1
-5 0 6 8 12 -3 -1 1
-6 6 7 9 11 -1 3 3
2 11 5 9 10 -1 2 1
3 5 5 6 8 -4 1 0
2 15 8 10 13 2 8 3
-4 18 9 15 15 6 8 3
-2 11 9 11 14 5 4 2
7 11 7 9 13 3 3 1
12 16 2 5 9 1 0 -3
1 5 0 3 7 -2 -4 -3
2 4 1 2 6 -4 -4 0
-2 8 1 3 4 -6 -2 0
-2 12 1 1 4 -4 -2 -1
4 7 2 2 6 -3 -3 -1
9 7 3 5 8 -1 0 -1
0 8 5 8 7 0 2 -2
0 6 9 6 9 2 4 2
-3 12 13 11 12 5 8 6
0 20 15 13 14 10 14 9
6 17 12 7 14 5 9 6
10 13 15 9 17 6 9 7
9 20 15 12 15 6 8 5
2 23 14 11 15 6 5 5
-4 19 20 14 19 9 8 10
-2 23 25 21 24 13 13 14
-2 22 20 19 18 6 6 5
2 18 19 15 15 3 2 2
10 22 20 12 11 -1 1 2
11 23 23 16 15 5 7 8
5 23 25 13 17 7 10 11
2 22 27 8 18 10 12 15
3 18 24 8 17 11 12 12
2 22 21 8 19 12 11 11
6 27 21 4 18 11 10 11
1 22 20 6 21 17 16 14
3 27 17 8 22 16 17 14
9 30 14 6 26 14 19 19
8 31 12 3 23 11 18 18
9 32 9 7 24 14 21 18
17 41 10 5 25 14 22 21
13 35 7 0 20 12 19 20
4 27 -1 -5 14 10 15 15
7 33 -5 -9 12 11 14 12
9 24 -9 -17 6 5 8 7
9 15 -8 -14 9 8 10 10
13 18 -7 -11 8 7 9 9
16 13 -9 -16 7 6 8 10
15 10 -12 -18 5 6 10 9
15 18 -18 -21 -1 4 8 5
19 24 -18 -23 -1 3 7 4
24 15 -14 -17 6 8 12 9
18 13 -10 -14 7 8 12 8
15 9 -6 -15 8 8 12 8
18 8 -5 -18 4 3 9 5
6 1 -2 -14 4 4 12 6
-2 1 -1 -14 1 3 8 2
0 -6 -3 -18 0 0 0 0
7 -5 -3 -18 0 -1 -4 -1
2 -5 -4 -16 0 1 -3 -2
-3 -11 -8 -25 -7 -9 -12 -10
2 -13 -7 -23 -5 -10 -12 -8
5 -6 -3 -18 -4 -7 -8 -6
3 -5 -3 -19 -6 -9 -10 -6
15 -8 -7 -24 -11 -14 -16 -11
9 -9 -5 -21 -8 -11 -13 -11
-11 -11 -3 -17 -9 -9 -11 -11
-9 -14 -2 -18 -7 -8 -11 -9
-4 -12 -5 -22 -9 -10 -13 -11
-5 -9 -5 -20 -7 -6 -10 -9
-7 -8 -3 -19 -6 -7 -10 -8
-4 -10 -3 -21 -3 -7 -10 -3
-3 -8 -4 -21 -4 -8 -10 -5
4 -7 -5 -23 -6 -11 -13 -9
1 -14 -3 -24 -6 -11 -13 -10
-8 -15 -2 -21 -3 -5 -8 -6
-2 -8 -3 -21 -7 -7 -8 -7
6 -6 -6 -24 -9 -9 -11 -9
9 -11 -7 -24 -9 -8 -11 -10
1 -10 -4 -20 -6 -5 -7 -7
-7 -10 -2 -20 -7 -7 -7 -6
-6 -14 -4 -22 -5 -9 -7 -4
2 -6 -5 -23 -7 -11 -7 -7
-8 -7 -3 -21 -5 -9 -4 -6
-12 -18 2 -20 -2 -8 -2 -4
-3 -12 3 -15 -1 -8 -3 -5
-3 -7 10 -5 0 -8 -6 -9
-1 -9 19 7 4 -7 -8 -10
-2 -2 30 24 12 -2 -8 -8
-4 4 39 40 23 4 -4 -6
1 6 47 57 31 7 -6 -3
8 10 55 72 43 16 1 5
9 24 64 86 58 34 16 13
10 33 77 99 86 66 39 27
17 41 91 111 112 95 58 39
21 56 110 140 159 141 89 56
27 76 130 170 220 200 126 75
49 94 131 176 283 265 168 97
68 116 122 180 362 354 228 132
84 146 108 177 440 448 294 172
97 158 82 149 476 499 328 196
92 161 27 92 472 508 343 210
90 160 -42 9 404 457 319 200
84 123 -90 -75 298 359 260 167
70 85 -158 -216 159 235 187 127
54 56 -212 -357 4 105 118 95
38 42 -249 -451 -144 -23 47 59
20 17 -262 -513 -243 -101 -1 32
10 -10 -257 -534 -310 -152 -37 7
-1 -25 -248 -542 -360 -194 -71 -21
-19 -48 -237 -526 -371 -214 -95 -40
-19 -59 -226 -495 -359 -217 -106 -51
-19 -59 -220 -459 -343 -217 -113 -62
-29 -69 -218 -433 -327 -211 -118 -68
-37 -80 -211 -403 -300 -199 -115 -64
-38 -68 -202 -364 -269 -181 -108 -61
-28 -57 -188 -326 -242 -167 -105 -64
-23 -59 -179 -297 -216 -155 -102 -63
-22 -51 -165 -264 -191 -140 -93 -56
-21 -35 -142 -228 -165 -120 -78 -47
-18 -25 -120 -198 -142 -103 -69 -39
-10 -25 -101 -172 -123 -93 -64 -37
-4 -13 -89 -146 -111 -84 -61 -39
-8 -12 -74 -123 -95 -72 -55 -35
-11 -16 -62 -110 -83 -66 -49 -28
-6 -10 -51 -92 -72 -59 -41 -23
-8 -6 -40 -76 -62 -53 -34 -21
-5 -9 -30 -65 -51 -46 -28 -16
-13 -22 -27 -57 -49 -45 -27 -18
-16 -27 -23 -50 -45 -41 -26 -21
-9 -23 -22 -49 -46 -40 -28 -23
-6 -27 -17 -43 -41 -37 -28 -21
-9 -27 -12 -32 -36 -31 -23 -19
-6 -23 -7 -25 -30 -27 -22 -19
-3 -17 -4 -24 -27 -26 -24 -17
-3 -21 -6 -23 -30 -26 -28 -20
-4 -20 -7 -21 -31 -28 -32 -24
-7 -23 -1 -17 -27 -25 -29 -18
-5 -23 -2 -16 -28 -26 -27 -18
0 -16 -4 -18 -31 -29 -29 -22
4 -27 -4 -22 -33 -32 -32 -25
1 -28 -1 -19 -29 -29 -28 -20
-1 -20 3 -12 -27 -25 -26 -18
4 -20 4 -9 -24 -25 -26 -19
6 -20 0 -14 -29 -29 -31 -23
7 -14 -1 -11 -28 -27 -28 -23
5 -13 2 -9 -27 -23 -24 -21
6 -16 3 -12 -25 -22 -22 -18
-3 -21 4 -12 -27 -22 -20 -17
-6 -26 8 -7 -24 -21 -19 -17
-3 -25 7 -10 -28 -24 -24 -19
-5 -24 7 -8 -25 -22 -22 -16
-5 -24 7 -4 -25 -21 -21 -16
2 -25 5 -4 -24 -22 -26 -19
5 -26 4 -8 -25 -24 -29 -20
-3 -24 4 -3 -22 -22 -25 -19
-2 -17 3 -3 -24 -22 -25 -20
4 -24 4 -4 -22 -23 -23 -17
-1 -26 6 0 -22 -21 -20 -14
-4 -25 5 2 -22 -22 -21 -17
-5 -33 6 0 -25 -27 -26 -20
-2 -36 9 2 -22 -26 -25 -18
-2 -32 11 7 -23 -25 -24 -17
0 -26 9 8 -24 -31 -27 -20
4 -28 7 5 -25 -35 -29 -20
2 -23 10 12 -18 -28 -23 -15
6 -17 9 13 -18 -28 -24 -15
5 -24 8 12 -18 -28 -23 -14
-1 -24 10 17 -17 -26 -19 -12
-1 -16 13 22 -13 -24 -14 -12
-1 -20 12 18 -16 -26 -17 -15
2 -20 11 17 -16 -27 -19 -16
2 -14 12 26 -12 -25 -17 -18
5 -16 10 28 -11 -27 -20 -20
5 -24 13 27 -11 -28 -23 -18
7 -16 12 30 -10 -27 -21 -18
9 -12 12 37 -10 -24 -20 -18
11 -17 13 36 -7 -22 -21 -16
-1 -19 16 40 -6 -17 -16 -12
-4 -20 15 44 -5 -16 -14 -13
-1 -25 15 44 -4 -16 -17 -16
7 -23 17 48 1 -13 -15 -13
7 -19 19 55 5 -9 -10 -12
0 -18 18 58 7 -9 -10 -12
-7 -25 16 57 6 -10 -12 -12
-3 -19 19 65 14 -3 -7 -8
4 -10 17 71 14 -3 -8 -9
10 -12 17 71 17 -2 -9 -7
15 -10 19 75 18 3 -5 -4
9 -8 19 80 23 6 -4 -5
10 -5 20 79 22 4 -7 -6
14 0 23 83 26 8 -3 -2
21 6 22 86 26 7 -1 -2
13 -3 20 87 28 6 -3 -5
13 -12 22 86 29 7 -1 -3
12 -2 24 90 33 11 3 0
-1 0 29 98 39 19 10 6
-9 2 33 101 46 26 18 13
7 5 30 98 45 26 18 12
18 13 29 101 47 28 19 11
11 9 27 97 43 24 13 8
12 4 26 92 44 25 12 11
11 15 24 94 43 27 14 9
11 13 24 95 45 27 11 7
14 7 25 93 45 25 10 9
17 13 25 95 47 28 12 11
12 15 25 98 46 30 16 12
15 12 25 94 46 30 17 14
21 16 22 91 42 29 18 14
20 25 22 94 42 30 19 13
15 17 26 94 44 32 21 15
8 10 26 92 46 32 22 16
15 14 28 96 48 36 29 19
17 21 29 95 48 37 28 19
15 15 26 86 45 33 25 19
22 19 24 84 44 35 28 20
16 16 19 81 40 32 27 16
15 13 18 76 39 30 24 16
14 19 21 78 41 31 28 22
11 30 22 83 42 31 30 21
14 17 22 81 41 29 28 20
16 11 20 76 40 27 26 20
21 20 21 80 41 28 27 20
20 23 22 79 43 31 27 20
8 18 21 75 41 32 27 21
14 26 20 77 41 35 31 21
20 31 19 78 40 37 32 19
18 27 19 72 40 37 32 20
21 25 20 71 41 39 34 21
26 30 20 71 42 41 33 22
25 28 20 66 41 40 31 23
9 23 21 65 42 41 33 25
-5 14 19 64 40 39 31 21
4 13 15 59 35 33 25 14
9 16 15 56 33 32 24 15
20 19 14 55 32 31 23 15
18 25 17 57 34 33 24 16
16 20 16 51 32 30 23 15
21 13 15 45 29 29 23 13
18 16 15 46 29 30 23 11
15 7 14 41 27 27 21 12
13 6 14 38 29 26 24 14
9 10 15 37 27 26 24 14
7 8 13 30 23 21 17 11
11 9 13 26 21 17 15 10
8 16 11 25 19 17 15 9
6 12 12 27 20 19 16 8
14 16 15 25 22 21 19 11
22 19 17 25 21 22 20 12
20 25 17 26 19 21 16 10
4 3 12 19 11 11 5 4
-7 -15 11 16 9 8 4 2
-12 -14 11 21 9 8 5 2
-6 -9 13 22 9 8 5 2
2 -11 10 13 3 0 0 -1
3 -2 10 16 4 2 2 -1
4 5 9 16 2 1 1 -3
9 2 11 14 5 1 2 1
-1 1 12 15 6 -2 5 4
-11 -1 17 22 11 0 10 8
-7 -4 13 18 5 -4 4 5
4 -1 11 14 4 -6 2 2
16 -1 9 14 1 -6 -1 -1
12 -6 11 17 1 -4 -1 -1
4 -10 12 15 1 -5 -3 -1
8 0 10 14 -1 -5 -4 -2
4 -3 8 15 -2 -5 -5 -3
4 -9 9 13 1 -4 -4 -1
3 -7 11 14 3 -2 -3 1
-5 -5 10 18 3 -3 -3 -1
-7 -10 9 14 -1 -8 -8 -5
-3 -17 13 18 1 -7 -4 -2
3 -6 14 22 3 -5 -2 -1
1 -4 13 20 2 -5 -2 -2
-3 -10 12 18 3 -6 -3 0
-4 -7 11 18 3 -4 0 -1
0 -3 12 21 4 -2 0 -1
4 -3 12 20 4 -2 0 0
-5 -5 15 21 6 -1 2 2
-16 -7 17 25 7 1 3 3
-19 -12 16 19 7 -2 -2 1
-12 -12 17 19 10 -1 0 4
-4 -3 15 22 8 -2 -2 0
10 -2 10 18 2 -9 -8 -5
6 -5 15 20 8 -4 -3 1
0 -5 15 22 8 -1 2 3
2 -3 13 22 6 -3 -1 0
-2 -1 15 21 11 2 2 4
-4 0 15 20 12 3 2 6
-5 -3 16 21 13 4 4 5
-4 -9 12 17 8 -1 -1 1
3 -8 15 17 11 2 2 4
8 -1 15 19 8 3 1 1
7 -3 13 19 8 4 1 1
5 -6 12 16 8 4 2 3
3 2 13 20 13 10 7 7
-5 0 13 22 11 8 6 4
-7 -6 12 20 10 7 5 6
0 -2 7 17 6 3 3 4
6 -3 3 14 2 -2 -2 -3
-2 -9 5 13 3 -5 -2 -1
-4 -10 11 16 8 -2 3 4
-5 -8 7 15 5 -3 1 1
1 -5 9 16 7 -1 2 3
6 -4 12 16 9 0 5 8
12 2 9 17 8 2 7 5
11 1 3 14 1 -4 2 -2
9 -1 5 15 5 -2 4 2
0 -9 5 15 6 0 7 3
1 -6 6 15 6 0 8 1
0 -5 5 10 4 -4 5 1
-3 -9 6 9 5 -3 3 4
1 -3 4 8 3 -5 -1 0
5 1 5 9 3 -5 -2 0
4 -4 3 7 2 -6 -2 2
-4 -3 5 10 5 -2 4 4
0 3 5 13 4 1 6 2
3 -6 4 11 3 0 4 3
1 -4 2 7 0 -2 3 2
3 3 0 7 -1 -3 3 -3
3 -5 -1 1 -4 -7 -1 -3
2 -7 1 1 -1 -7 2 2
-2 -5 2 3 0 -8 2 1
-4 -9 4 5 -1 -8 -1 2
-4 -5 3 3 -3 -13 -6 0
-4 1 5 8 0 -9 -2 0
1 8 9 13 2 -5 2 1
4 6 12 13 6 -1 6 6
2 3 11 10 4 -1 7 5
5 13 9 10 2 -2 5 2
3 11 11 11 2 -1 5 2
3 9 15 14 7 3 10 8
2 15 15 17 6 4 12 8
1 13 15 18 4 2 11 6
2 7 17 18 5 3 12 9
-2 16 19 20 6 5 14 10
-9 20 15 13 0 -2 8 1
-4 17 17 12 3 0 8 3
-7 20 18 11 5 2 8 4
-3 33 20 15 6 3 8 5
5 42 15 9 1 -3 2 2
3 33 12 4 0 -5 -1 1
-2 35 11 4 0 -4 -1 1
-2 32 3 -1 -3 -6 -2 -1
8 34 -3 -6 -4 -7 -3 1
9 39 -1 -1 1 0 6 6
10 38 -2 0 0 0 7 5
17 36 -5 -4 0 -1 5 6
12 26 -8 -8 -3 -3 4 5
10 28 -10 -4 -4 -3 6 4
14 28 -11 -7 -4 -4 3 5
14 22 -11 -8 -3 -5 4 7
10 20 -12 -9 -5 -5 4 6
7 26 -16 -14 -9 -7 2 2
14 24 -17 -14 -8 -6 2 4
22 27 -17 -10 -6 -1 7 6
17 21 -22 -10 -10 -3 3 1
10 5 -25 -15 -14 -8 -2 -3
15 7 -25 -16 -14 -8 -3 -3
17 12 -21 -8 -10 -4 0 -1
16 7 -15 -5 -7 -2 1 1
9 2 -12 -5 -6 -3 1 1
0 9 -10 -3 -6 -4 1 -1
3 18 -7 -3 -7 -4 0 -2
-3 -1 -7 -5 -9 -6 -2 -1
-7 -5 -11 -8 -13 -8 -3 -6
-2 0 -10 -6 -13 -8 -5 -7
-1 -4 -12 -10 -15 -12 -9 -10
-1 -11 -11 -10 -17 -15 -11 -11
-1 -5 -12 -6 -18 -14 -12 -13
-4 -14 -13 -10 -19 -18 -16 -15
-6 -19 -10 -9 -14 -15 -13 -12
-1 -9 -7 -3 -12 -11 -8 -9
1 -9 -10 -8 -16 -15 -13 -13
-6 -18 -10 -9 -15 -14 -13 -11
-9 -10 -10 -6 -12 -10 -8 -11
-5 -8 -13 -6 -17 -15 -14 -16
-2 -15 -12 -9 -18 -18 -15 -15
-3 -20 -11 -8 -17 -18 -12 -13
-1 -12 -13 -6 -19 -18 -12 -16
0 -18 -15 -10 -23 -23 -19 -19
-1 -23 -16 -11 -24 -24 -21 -20
-7 -24 -15 -8 -23 -21 -21 -22
-11 -25 -14 -10 -22 -20 -20 -22
-14 -24 -11 -13 -19 -18 -18 -16
-18 -11 -8 -10 -17 -13 -11 -14
-25 -8 -7 -7 -16 -11 -10 -14
-16 -10 -7 -8 -14 -9 -6 -10
-1 -12 -8 -10 -16 -10 -6 -11
1 -5 -11 -9 -16 -10 -7 -13
-3 -12 -11 -11 -17 -13 -11 -13
-8 -18 -9 -9 -13 -11 -6 -10
-6 -16 -7 -3 -13 -13 -11 -12
-9 -18 -2 5 -11 -15 -18 -15
-21 -19 8 15 -8 -17 -22 -15
-12 -6 18 31 -1 -15 -20 -16
-4 -1 26 47 4 -14 -19 -16
-3 2 36 63 15 -8 -14 -11
5 11 47 84 29 3 -6 -5
-2 15 56 101 43 18 7 1
-2 24 66 111 63 38 19 12
1 29 81 125 93 69 44 31
6 40 91 139 117 95 59 37
18 50 105 161 161 133 82 48
23 62 120 184 222 187 119 70
38 84 121 197 293 264 171 100
59 114 111 201 374 353 231 134
78 138 87 183 436 429 282 167
89 148 48 155 463 469 313 189
95 157 -15 101 443 470 324 199
90 136 -72 16 355 398 287 183
83 106 -131 -97 231 289 225 150
67 79 -192 -241 91 174 159 116
48 52 -242 -370 -64 37 81 77
31 26 -268 -461 -193 -76 14 39
16 9 -276 -509 -274 -135 -26 13
0 -18 -267 -530 -337 -184 -62 -14
-16 -48 -261 -536 -375 -220 -94 -38
-28 -68 -251 -511 -375 -231 -111 -52
-26 -60 -236 -468 -353 -220 -110 -54
-26 -63 -229 -437 -336 -217 -114 -58
-24 -68 -228 -405 -315 -208 -118 -61
-30 -67 -220 -368 -291 -196 -115 -63
-40 -67 -210 -335 -265 -184 -112 -65
-43 -73 -200 -307 -244 -174 -111 -68
-36 -63 -182 -270 -216 -154 -101 -62
-35 -52 -166 -236 -194 -140 -93 -60
-38 -45 -139 -200 -166 -120 -80 -48
-39 -36 -113 -162 -137 -100 -66 -38
-39 -29 -90 -126 -114 -83 -52 -32
-31 -22 -79 -109 -103 -78 -50 -32
-23 -20 -69 -98 -91 -70 -44 -28
-27 -13 -58 -83 -82 -61 -38 -25
-24 -17 -49 -68 -73 -55 -36 -22
-22 -22 -43 -60 -66 -52 -36 -20
-15 -19 -38 -48 -60 -46 -33 -21
-15 -14 -36 -40 -60 -47 -36 -27
-10 -24 -29 -33 -54 -44 -38 -27
-10 -22 -22 -23 -47 -40 -37 -25
-16 -14 -18 -15 -44 -37 -36 -26
-15 -26 -13 -10 -42 -37 -38 -25
-6 -27 -11 -10 -38 -37 -38 -25
-10 -25 -7 -5 -36 -32 -33 -23
-9 -25 -6 -5 -37 -33 -32 -24
-11 -29 -6 -10 -38 -34 -32 -23
-11 -22 -5 -4 -34 -28 -25 -20
-5 -21 -5 -2 -37 -30 -27 -22
1 -25 -8 -8 -40 -35 -32 -25
-5 -21 -5 -7 -37 -32 -32 -24
-12 -18 -2 1 -33 -28 -27 -23
-12 -22 -4 -3 -37 -35 -34 -26
-11 -23 -3 -1 -32 -31 -31 -21
-12 -21 -3 3 -32 -30 -29 -21
-8 -12 -1 5 -32 -31 -29 -20
0 -17 2 5 -30 -31 -28 -16
1 -13 2 5 -29 -28 -23 -15
-11 -18 3 6 -32 -29 -23 -17
-17 -28 2 4 -35 -31 -27 -20
-8 -30 0 2 -38 -34 -31 -23
3 -15 3 7 -36 -31 -28 -24
-3 -26 1 3 -39 -37 -34 -28
-20 -40 -2 0 -39 -38 -36 -28
-21 -33 1 5 -36 -32 -30 -24
-6 -21 1 4 -38 -33 -31 -25
4 -29 -1 -1 -41 -40 -33 -27
2 -25 -1 5 -39 -40 -29 -26
6 -19 2 12 -38 -40 -30 -26
1 -24 6 15 -35 -39 -30 -25
-7 -21 5 15 -35 -37 -31 -28
-7 -21 6 21 -34 -36 -29 -27
-4 -32 9 21 -33 -37 -31 -26
-7 -33 9 20 -29 -36 -30 -25
-7 -28 9 19 -29 -33 -29 -24
-7 -28 6 16 -29 -33 -29 -24
-1 -31 4 14 -30 -34 -30 -24
-10 -18 7 25 -23 -28 -24 -19
-19 -17 8 29 -25 -29 -26 -22
-9 -24 10 30 -24 -31 -28 -22
-1 -21 11 34 -20 -30 -27 -20
-2 -11 14 41 -17 -28 -26 -20
-5 -25 14 40 -18 -31 -33 -24
-11 -35 12 39 -18 -33 -35 -25
-7 -25 14 44 -15 -28 -31 -22
-6 -25 17 51 -11 -25 -27 -19
-5 -30 17 51 -11 -25 -26 -18
-12 -27 19 57 -6 -20 -19 -13
-7 -20 18 61 -8 -20 -19 -15
1 -24 16 60 -9 -24 -21 -18
-4 -27 19 64 -4 -21 -20 -16
-8 -21 23 74 2 -15 -17 -12
-5 -24 23 76 2 -18 -22 -15
4 -22 23 79 6 -15 -18 -14
4 -18 24 84 5 -13 -18 -16
1 -18 25 88 8 -11 -17 -14
-4 -23 26 87 12 -9 -17 -10
-2 -13 26 88 13 -6 -15 -10
0 -13 28 94 15 -3 -13 -10
4 -12 30 97 18 -1 -12 -9
5 -16 31 102 21 1 -10 -7
3 -11 32 106 24 4 -8 -7
-4 -15 35 107 27 7 -6 -4
-4 -7 35 107 30 9 -4 -2
-1 -3 35 110 31 11 0 -1
3 -6 34 111 32 13 2 2
14 -4 33 107 32 13 3 3
8 5 34 111 35 18 9 6
4 4 34 113 32 19 10 5
4 3 35 114 34 19 9 6
1 5 35 115 38 20 12 8
12 2 35 117 39 18 13 7
13 1 38 116 40 18 13 9
12 1 37 115 43 20 15 11
9 6 37 116 43 22 16 12
5 5 36 113 40 19 11 10
14 4 36 109 39 16 9 12
19 14 36 112 42 20 15 13
13 8 35 111 38 18 15 13
22 7 31 102 35 12 10 9
19 6 33 103 38 17 14 12
9 9 36 111 43 22 19 15
10 10 35 106 40 20 18 15
7 6 38 105 46 26 24 20
6 10 35 105 46 29 27 21
13 21 34 104 45 29 27 21
18 18 32 100 42 26 24 21
17 29 30 100 41 27 25 19
6 25 27 100 36 23 23 17
3 7 32 100 39 25 24 20
9 10 32 100 39 25 23 19
16 16 30 101 39 25 22 17
12 7 27 93 35 20 17 15
11 5 26 90 37 23 20 16
15 12 25 91 35 23 22 17
18 11 24 91 33 24 22 16
14 6 21 85 33 22 21 15
13 11 23 86 37 27 25 19
16 16 24 88 35 28 25 18
12 11 26 88 36 29 25 19
9 10 29 90 40 32 30 22
11 15 30 91 40 35 31 21
14 10 29 85 37 31 28 20
17 15 27 79 39 32 29 22
14 16 26 79 38 34 32 22
12 10 23 75 34 31 27 18
18 7 20 66 30 24 21 13
13 3 20 66 30 26 21 14
6 8 19 64 24 21 16 11
9 11 20 63 26 22 15 12
17 9 20 61 26 21 14 12
18 9 19 62 25 21 15 11
8 -6 15 55 19 13 8 6
6 -7 17 53 21 15 11 8
10 -4 15 51 19 15 13 8
11 -4 12 47 14 10 10 4
3 -6 15 47 17 11 13 9
-4 -5 18 50 23 18 18 12
-3 -2 17 51 18 15 15 7
5 2 13 44 12 7 5 1
6 3 11 41 8 3 2 -1
0 8 11 42 6 -1 -3 -5
7 -5 12 41 4 -5 -7 -5
13 -10 14 40 7 -1 -5 -3
8 -3 13 41 6 -2 -5 -4
1 -6 15 45 7 2 -2 -1
-1 -9 13 41 5 -2 -5 -2
6 -3 9 40 2 -3 -7 -5
-2 -9 11 43 1 -3 -5 -6
-8 -10 15 44 3 -2 -3 -2
-1 -11 15 43 4 -2 -2 -2
1 -8 16 44 3 -1 -2 -4
5 -10 15 37 -1 -6 -6 -6
7 -13 15 35 0 -5 -6 -6
2 -4 15 38 -1 -4 -4 -6
-7 1 14 38 -2 -7 -7 -7
-11 -16 13 36 -3 -10 -10 -7
-9 -14 15 41 1 -6 -6 -4
-2 -10 15 43 -2 -9 -7 -6
-3 -13 12 37 -5 -13 -13 -9
-3 -13 15 39 -3 -11 -11 -7
1 -10 18 46 1 -8 -7 -6
-2 -14 20 43 1 -10 -9 -6
-4 -12 22 44 5 -6 -6 -3
-9 -15 20 45 3 -5 -5 -4
-6 -13 19 43 2 -6 -7 -5
-2 -17 18 39 1 -9 -8 -4
5 -11 14 36 0 -8 -6 -6
-3 -12 16 37 0 -6 -3 -4
-9 -15 18 38 2 -5 -4 -3
-9 -11 20 42 6 -2 0 -1
-11 -9 19 45 5 -1 0 -3
-14 -13 22 44 5 -3 -5 -2
-7 -6 23 44 9 0 -4 0
1 2 25 48 10 2 -3 1
1 0 26 50 13 2 -3 1
4 -5 22 44 8 -5 -9 -1
-3 -10 16 41 5 -6 -9 -7
-6 -7 13 40 0 -9 -13 -11
-5 -13 13 38 2 -8 -13 -9
-12 -20 14 37 4 -6 -10 -7
-11 -15 14 42 5 -2 -8 -6
-2 -14 15 39 5 -3 -9 -6
2 -14 14 37 8 0 -7 -4
-4 -6 18 41 10 6 -1 -1
-11 -2 18 41 11 8 1 1
-7 -7 16 35 10 5 0 1
0 2 10 32 8 5 1 -2
2 4 9 33 5 5 1 -3
-4 -2 12 33 9 7 2 2
-2 -1 15 35 10 8 3 2
0 4 15 38 10 8 2 1
8 -5 14 35 8 4 -5 0
12 -6 14 35 10 5 -6 0
4 -9 14 33 7 3 -8 -2
-1 -9 10 30 2 1 -9 -4
2 -11 10 28 3 1 -8 -3
-5 -6 10 31 4 6 -2 -2
-6 -4 11 31 2 5 -3 -3
-2 -8 11 29 4 5 -4 -2
0 -9 12 29 5 6 -1 0
-5 -11 12 33 5 8 1 0
-8 -15 16 31 6 8 -1 2
2 -10 14 28 7 7 -1 2
-2 -12 13 29 5 7 -2 1
-7 -13 14 29 5 7 -4 2
-5 -16 12 25 5 4 -5 2
-5 -15 13 30 7 10 0 4
-1 -14 11 28 2 8 -2 0
3 -19 8 26 0 4 -5 -2
10 -14 6 23 -1 1 -6 -5
11 -14 8 24 0 5 -4 -4
9 -21 8 18 -4 2 -7 -5
7 -19 7 17 0 4 -4 -3
5 -12 11 22 2 9 1 -1
-1 -8 12 24 2 10 0 0
0 -4 13 22 1 7 -3 -1
6 -4 16 26 4 12 3 4
0 1 19 31 6 14 6 5
-1 1 23 34 10 16 7 8
6 -2 22 31 8 13 2 5
5 4 26 36 9 15 1 5
10 3 23 32 5 9 -4 1
3 -4 23 30 8 9 -2 4
4 3 24 32 8 9 0 4
5 0 24 30 5 7 -2 2
4 -2 23 26 5 4 -4 1
0 9 29 34 13 14 7 8
-2 12 28 32 9 10 6 6
2 8 26 28 8 8 3 5
4 10 24 27 7 8 3 6
3 10 23 28 7 10 4 6
0 5 19 23 6 7 2 5
4 7 15 21 10 13 8 10
2 17 12 20 9 14 8 11
-2 14 15 26 14 18 9 15
1 11 11 19 10 12 3 13
9 19 0 13 5 9 -1 6
1 11 -3 13 1 5 -2 3
4 9 -4 10 1 5 -2 4
13 11 -1 13 4 9 1 8
14 13 -5 12 0 6 -1 5
19 4 -9 6 -6 -1 -8 -1
24 9 -10 6 -3 3 -5 2
21 15 -9 9 -2 8 1 4
22 12 -12 8 -3 7 1 4
21 1 -16 4 -6 3 -2 1
10 -4 -19 5 -7 4 0 -1
12 -4 -17 6 -10 0 -3 -5
10 -13 -13 8 -7 1 -2 -1
0 -14 -8 10 -3 5 0 1
2 -2 -4 14 -1 7 0 1
-1 -4 -4 10 -5 1 -8 -1
-3 -12 -2 9 -5 1 -9 -1
0 -3 -6 5 -11 -3 -14 -8
2 -6 -10 2 -16 -7 -18 -12
-1 -15 -6 2 -13 -5 -14 -8
-9 -18 -4 8 -11 -1 -10 -8
-9 -19 -5 7 -16 -6 -14 -13
-9 -21 -7 4 -19 -10 -18 -14
-8 -19 -8 2 -19 -11 -19 -16
-8 -9 -2 8 -14 -5 -12 -13
-7 -8 0 8 -13 -5 -12 -11
-1 -9 -3 3 -13 -7 -13 -12
-6 -6 -6 1 -16 -8 -13 -15
-5 -10 -4 2 -15 -6 -13 -13
1 -11 -6 -3 -17 -10 -18 -13
1 -5 -7 0 -18 -9 -17 -15
-6 -16 -10 -1 -22 -13 -23 -19
-12 -26 -9 -1 -21 -13 -24 -17
-14 -27 -6 2 -17 -10 -20 -15
-15 -20 -10 2 -21 -12 -23 -19
-13 -19 -9 -1 -20 -15 -24 -19
-20 -27 -2 5 -12 -6 -15 -10
-17 -23 -2 6 -12 -4 -13 -10
-4 -22 -5 1 -16 -7 -15 -13
-2 -21 -7 -5 -18 -8 -16 -12
-2 -15 -6 -1 -14 -3 -12 -11
-5 -14 -8 -3 -17 -6 -13 -13
-8 -20 -6 -6 -17 -7 -15 -11
-8 -16 -7 -8 -19 -8 -18 -13
-8 -12 -6 -1 -17 -6 -19 -15
-5 -15 -4 0 -18 -11 -25 -16
-6 -17 4 10 -13 -11 -24 -15
-10 -19 13 24 -11 -11 -24 -17
-8 -14 24 38 -4 -10 -23 -15
-7 -11 32 51 5 -5 -17 -11
-6 -4 44 75 19 6 -8 -6
-5 9 51 90 30 17 -1 -3
-7 14 62 98 45 32 10 6
-4 19 75 114 72 62 32 21
6 36 89 131 102 94 54 34
15 41 97 143 128 118 66 40
22 48 113 167 182 166 97 58
34 67 122 189 244 228 138 82
62 92 117 199 317 304 183 110
79 114 106 193 390 386 239 146
95 140 74 170 428 443 277 170
110 155 20 129 429 459 294 183
108 151 -39 56 376 427 285 185
98 119 -98 -45 261 335 236 158
86 86 -160 -178 127 223 173 123
68 52 -216 -323 -15 100 102 88
39 20 -253 -429 -150 -21 33 51
16 5 -266 -493 -240 -97 -15 22
-1 -14 -262 -523 -297 -145 -50 -2
-12 -46 -257 -545 -346 -187 -83 -24
-29 -65 -251 -535 -362 -207 -103 -45
-41 -77 -240 -500 -353 -211 -116 -57
-40 -83 -235 -469 -338 -210 -123 -63
-39 -82 -235 -438 -321 -205 -126 -70
-41 -80 -220 -396 -291 -188 -117 -67
-40 -79 -204 -358 -264 -173 -112 -64
-42 -77 -192 -321 -233 -158 -103 -61
-37 -66 -175 -283 -206 -141 -96 -57
-32 -55 -155 -248 -182 -125 -87 -53
-31 -50 -135 -216 -160 -112 -80 -40
-34 -31 -112 -176 -133 -91 -64 -35
-30 -24 -89 -143 -114 -78 -58 -34
-11 -15 -68 -118 -95 -65 -54 -27
-1 -9 -58 -104 -85 -59 -52 -25
-10 -11 -49 -90 -77 -52 -47 -25
-22 -21 -43 -80 -72 -51 -47 -23
-34 -37 -40 -71 -67 -48 -45 -24
-27 -31 -37 -64 -63 -46 -45 -25
-24 -28 -27 -52 -55 -39 -39 -21
-13 -29 -24 -49 -52 -39 -39 -22
-7 -21 -15 -34 -42 -28 -31 -18
-7 -22 -12 -30 -43 -31 -34 -23
-20 -40 -10 -27 -40 -32 -35 -24
-23 -40 -5 -22 -33 -27 -31 -22
-18 -35 -7 -20 -34 -25 -29 -24
-9 -38 -9 -25 -40 -31 -36 -27
-9 -36 -6 -24 -33 -27 -32 -22
-12 -34 -8 -25 -35 -28 -32 -24
-24 -35 -4 -22 -34 -26 -30 -21
-14 -31 -8 -25 -37 -32 -36 -24
0 -28 -9 -24 -37 -31 -35 -27
-2 -27 -3 -19 -36 -29 -34 -25
-8 -31 -1 -18 -35 -29 -32 -24
-8 -37 0 -16 -30 -27 -31 -22
-8 -31 3 -12 -28 -22 -27 -20
-8 -35 3 -15 -29 -25 -29 -20
-7 -36 2 -16 -27 -25 -26 -18
-14 -33 4 -14 -26 -23 -25 -18
-16 -32 4 -12 -28 -25 -29 -19
-11 -37 5 -11 -28 -28 -32 -20
-8 -33 7 -9 -26 -25 -31 -20
-7 -28 9 -8 -31 -29 -34 -23
1 -25 8 -8 -32 -32 -36 -23
-5 -28 7 -9 -31 -32 -35 -24
-14 -30 7 -10 -29 -28 -33 -23
-14 -39 6 -13 -31 -31 -34 -23
-14 -38 6 -10 -27 -29 -32 -21
-15 -33 6 -8 -27 -27 -31 -21
-11 -30 7 -8 -27 -25 -30 -21
-4 -34 7 -8 -26 -27 -31 -21
-12 -29 7 -5 -25 -24 -29 -23
-15 -30 8 -4 -27 -26 -32 -25
-15 -31 12 0 -23 -24 -30 -22
-8 -27 13 4 -20 -24 -30 -21
-14 -29 14 6 -18 -21 -30 -20
-12 -34 12 3 -21 -26 -32 -21
-8 -33 10 2 -20 -24 -31 -21
-13 -32 10 4 -20 -22 -29 -20
-14 -27 12 5 -20 -22 -30 -20
-15 -36 11 5 -20 -25 -32 -20
-15 -32 15 13 -15 -19 -28 -18
-8 -25 15 13 -20 -24 -31 -22
-12 -28 17 17 -19 -21 -29 -18
-8 -28 20 21 -12 -18 -24 -16
-6 -21 19 23 -11 -15 -23 -17
-7 -31 17 20 -14 -20 -27 -19
-8 -35 18 23 -10 -16 -23 -16
-7 -29 16 25 -11 -16 -24 -18
-4 -29 16 25 -12 -20 -30 -19
-3 -31 17 28 -12 -24 -34 -19
-6 -16 24 39 -2 -15 -27 -15
-3 -13 24 38 -4 -16 -28 -17
-6 -29 24 38 -5 -18 -29 -17
-5 -30 24 40 -3 -19 -29 -18
-4 -16 29 51 4 -9 -22 -14
-10 -22 26 47 2 -14 -25 -15
-5 -13 20 44 1 -15 -24 -17
-2 -17 22 51 5 -10 -19 -14
0 -19 22 54 7 -8 -19 -14
7 -22 21 55 7 -10 -20 -13
7 -12 27 64 15 -2 -13 -9
2 -11 33 69 19 2 -10 -6
4 -12 37 74 24 5 -7 -2
2 -11 36 74 26 5 -6 -3
4 1 43 83 33 16 3 4
-3 -7 38 76 30 10 -2 1
-3 -11 32 71 30 9 -2 0
-4 -5 29 70 30 10 -1 -2
-2 -7 31 71 32 13 1 1
7 -3 28 67 30 11 -2 -1
5 7 31 73 34 18 3 2
-3 2 36 79 37 19 5 5
0 0 36 76 38 20 5 6
3 4 35 76 40 21 6 6
4 4 36 78 42 26 8 7
15 0 32 70 36 19 3 5
16 0 32 69 40 24 8 9
17 12 32 69 39 27 12 10
15 15 33 71 39 27 12 10
8 7 35 69 41 26 12 12
9 12 35 70 42 31 16 13
9 14 33 66 37 27 14 11
11 11 34 64 38 29 15 13
16 18 36 67 43 33 20 16
15 23 37 68 44 37 24 17
15 14 32 58 39 28 16 15
7 9 30 58 41 30 16 17
4 13 27 57 38 29 15 15
1 11 28 57 37 29 16 16
2 7 28 54 36 27 15 16
0 9 31 57 39 33 21 17
-2 7 31 58 36 31 20 16
2 13 25 49 31 25 14 11
0 16 26 48 33 27 17 13
-2 17 35 55 41 38 28 20
10 19 32 49 37 32 23 19
17 24 29 45 38 33 24 19
13 28 28 44 37 32 21 17
8 24 31 46 38 33 21 19
18 25 29 41 36 29 18 17
19 24 29 44 36 31 20 15
15 20 28 41 32 27 17 13
20 17 28 38 32 27 15 13
11 15 29 36 34 30 18 15
12 25 28 34 33 32 19 13
1 12 25 25 30 26 16 12
7 12 23 18 31 27 19 14
7 15 20 16 30 27 20 13
1 14 19 14 29 26 18 12
0 11 18 8 26 23 15 11
8 12 19 9 28 26 15 11
10 9 18 8 23 21 9 7
9 5 20 8 23 20 10 6
7 5 21 4 24 20 12 7
8 13 18 1 22 20 12 5
9 7 12 -8 15 11 5 1
8 4 14 -9 19 14 10 5
4 12 16 -5 22 18 13 7
8 15 16 -5 21 16 13 6
11 6 17 -9 19 13 12 7
10 16 17 -8 18 16 14 6
-1 8 17 -7 14 12 9 3
-8 -5 18 -8 14 11 6 3
-7 -6 17 -13 10 8 4 1
-11 -6 14 -16 6 5 2 -3
-7 -10 14 -16 3 -2 -5 -2
-4 -8 14 -18 4 -3 -7 -3
0 -3 13 -18 2 -3 -9 -4
-2 -6 17 -16 3 -1 -6 -3
-4 -10 17 -17 2 -4 -8 -3
-8 -3 18 -16 3 -2 -7 -5
-5 -2 17 -16 0 -4 -9 -6
-1 -13 15 -19 -3 -8 -12 -9
0 -9 16 -17 -2 -7 -9 -9
-6 0 19 -12 2 -1 -5 -6
-12 -11 18 -16 0 -8 -8 -6
-11 -5 18 -16 3 -6 -6 -4
-8 3 17 -18 -1 -8 -8 -8
-12 0 20 -16 1 -6 -7 -6
-9 -13 19 -17 2 -9 -9 -6
-13 -7 19 -17 2 -5 -8 -7
-9 -5 19 -18 0 -7 -10 -8
-5 -3 17 -19 0 -7 -11 -9
-7 -6 17 -21 -1 -7 -12 -10
-13 -7 21 -18 4 -1 -7 -6
-16 -14 19 -20 1 -5 -10 -6
-18 -11 23 -16 6 0 -5 -3
-18 -10 23 -16 5 1 -4 -4
-12 -10 21 -20 1 -1 -6 -7
-10 -13 21 -22 3 -2 -6 -6
-14 -8 19 -20 4 1 -5 -9
-19 -8 20 -21 2 -3 -8 -11
-16 -4 21 -22 3 -2 -7 -9
-11 -4 20 -22 5 -2 -7 -9
-14 1 20 -19 8 1 -4 -8
-13 -8 21 -22 7 -1 -5 -5
-14 -12 20 -21 10 3 -1 -3
-14 -3 18 -21 8 3 -2 -4
-11 2 19 -15 9 2 -4 -5
-9 -4 21 -12 11 1 -7 -2
-13 2 21 -7 13 5 -3 -4
-13 -9 22 -8 12 1 -5 -6
-15 -13 23 -8 13 3 -3 -4
-12 -8 21 -8 14 2 -4 -4
-13 -5 20 10 14 5 -2 -4
-4 -5 17 14 10 0 -5 -4
5 -2 13 16 9 2 -4 -4
2 -3 9 17 8 0 -5 -7
-1 3 11 22 10 3 -1 -6
-4 -3 13 24 12 3 0 -2
3 3 11 24 11 4 2 -5
2 4 11 22 8 0 -1 -8
-2 3 13 23 11 0 1 -5
0 7 12 22 11 1 -2 -5
-10 2 13 23 10 3 -1 -6
-14 -7 12 20 8 0 -3 -4
-11 -8 11 21 11 4 1 -2
-14 -6 10 20 11 4 0 -3
-20 -8 12 20 13 5 1 -3
-15 -11 10 18 10 2 -2 -4
-10 -2 8 19 10 3 -2 -6
-6 0 9 18 7 0 -5 -8
-3 -1 10 19 9 0 -5 -6
-1 -2 10 19 10 0 -4 -5
0 3 11 21 11 2 -2 -5
4 4 11 18 9 -1 -4 -4
1 2 8 17 10 0 -2 -3
-3 8 6 15 6 -2 -4 -6
-9 -1 8 15 6 -2 -4 -6
-9 -3 8 13 5 -3 -4 -5
-10 1 9 16 7 2 0 -5
-15 -3 8 11 2 -4 -4 -8
-15 -10 10 11 6 -1 -2 -5
-18 -12 10 10 6 0 -1 -4
-12 2 9 13 8 3 2 -4
-5 5 10 10 7 0 1 -2
3 4 11 9 10 3 6 1
-5 2 10 11 9 2 5 -1
-7 3 12 13 9 0 3 -2
-4 0 15 14 10 -4 1 0
-3 7 19 21 14 3 3 -1
-2 9 20 22 13 1 -1 -4
0 13 23 22 15 2 0 0
1 15 24 21 15 2 -1 1
1 18 22 18 12 1 -3 -4
-4 19 24 11 11 0 -3 -1
-4 15 23 9 13 3 2 1
-10 13 22 10 11 4 2 -1
-16 14 22 13 13 5 4 1
-12 17 23 11 12 3 3 3
-10 23 23 15 15 8 8 3
-11 20 20 10 10 4 6 0
-10 19 17 6 11 1 5 0
-10 19 17 8 15 6 10 5
-9 25 13 10 17 10 14 7
-1 21 10 4 14 6 10 8
7 23 8 3 14 6 10 8
3 24 4 1 12 5 10 6
2 18 4 2 12 5 9 7
5 13 0 -3 8 -1 2 3
-2 17 -1 2 11 5 7 3
-5 16 1 1 9 3 7 3
-11 12 3 1 11 3 9 6
-9 14 2 -3 10 2 9 7
10 29 -3 -7 7 1 8 3
21 21 -6 -12 3 -3 4 3
21 15 -11 -12 2 -4 2 1
11 12 -17 -17 -3 -8 -2 -3
12 6 -14 -16 -2 -7 -3 -3
15 2 -14 -19 -5 -11 -6 -6
18 8 -14 -16 -4 -9 -4 -10
4 5 -7 -10 1 -5 0 -6
4 3 -8 -12 1 -9 -3 -8
-2 -5 -9 -14 -1 -14 -6 -11
-8 -6 -8 -14 -1 -15 -7 -13
-16 -10 -2 -14 1 -13 -5 -8
-12 -2 -4 -15 2 -12 -3 -7
-7 2 -6 -18 -3 -15 -6 -11
-10 -7 -5 -18 -4 -17 -6 -13
-15 -13 -4 -20 -6 -19 -9 -13
-1 0 -4 -17 -3 -13 -5 -15
-5 -5 -5 -18 -7 -16 -10 -18
-4 -10 -7 -21 -9 -19 -13 -19
-7 -13 -8 -21 -9 -19 -13 -19
-10 -11 -4 -16 -5 -14 -10 -18
-2 -16 -7 -20 -10 -19 -16 -18
1 -22 -10 -24 -10 -21 -17 -20
-10 -17 -7 -21 -9 -18 -14 -18
-12 -13 -5 -19 -7 -17 -13 -17
-5 -20 -6 -22 -10 -20 -16 -17
-4 -9 -5 -20 -8 -17 -11 -18
-16 -8 -5 -18 -9 -18 -12 -19
-18 -9 -4 -18 -9 -17 -11 -17
-10 0 -4 -21 -9 -17 -11 -16
-12 -6 -5 -22 -11 -17 -12 -19
-11 -16 -4 -24 -12 -19 -14 -17
-10 -15 -4 -21 -8 -16 -9 -14
-10 -14 -5 -24 -11 -16 -9 -16
-13 -20 -6 -25 -13 -17 -12 -17
-17 -23 -6 -29 -13 -19 -13 -18
-16 -11 -6 -24 -10 -15 -9 -18
-13 -15 -3 -22 -11 -15 -10 -18
-9 -18 -3 -21 -10 -17 -11 -18
-5 -13 2 -13 -7 -16 -11 -17
-8 -7 11 1 -2 -15 -9 -17
-11 -15 20 12 -1 -19 -15 -17
-12 -12 29 29 8 -14 -11 -15
-13 2 39 45 17 -7 -4 -12
-13 6 50 65 30 3 4 -6
-5 7 60 76 46 17 15 1
-9 21 74 91 66 42 35 12
-14 32 87 103 93 73 59 28
-8 36 95 114 117 97 76 38
18 48 101 132 149 127 91 42
36 69 118 166 205 179 119 59
51 80 120 180 262 232 145 80
68 104 115 192 338 309 196 114
83 139 101 190 407 387 253 149
98 152 64 163 434 428 285 170
114 162 4 109 421 432 296 181
112 158 -54 32 347 384 280 175
98 119 -118 -84 214 277 219 139
82 75 -184 -232 77 160 152 105
59 45 -238 -370 -63 41 88 71
34 28 -260 -456 -179 -60 33 40
7 11 -261 -503 -247 -117 -4 21
-10 -7 -255 -526 -297 -160 -33 -2
-21 -37 -257 -546 -343 -200 -70 -32
-21 -59 -254 -535 -355 -224 -101 -58
-27 -64 -243 -498 -341 -226 -112 -62
-36 -63 -236 -458 -322 -217 -112 -66
-40 -68 -229 -422 -302 -211 -119 -72
-44 -67 -216 -385 -275 -195 -112 -67
-46 -61 -200 -345 -241 -173 -100 -59
-49 -55 -187 -311 -218 -160 -92 -61
-46 -55 -172 -280 -196 -149 -89 -60
-37 -40 -149 -240 -167 -130 -75 -50
-30 -30 -125 -201 -144 -115 -70 -46
-35 -30 -103 -167 -121 -101 -65 -42
-37 -30 -87 -143 -105 -91 -59 -39
-35 -14 -72 -117 -89 -78 -49 -35
-25 -12 -58 -99 -77 -71 -44 -31
-27 -15 -47 -88 -67 -61 -36 -25
-27 -13 -40 -78 -60 -54 -32 -22
-22 -11 -38 -68 -55 -52 -30 -24
-14 -13 -35 -66 -54 -55 -35 -26
-14 -17 -26 -53 -45 -47 -27 -21
-12 -10 -23 -47 -45 -46 -28 -25
-15 -16 -19 -44 -43 -46 -30 -28
-17 -26 -13 -35 -37 -42 -28 -25
-14 -17 -9 -25 -31 -36 -24 -25
-8 -15 -8 -24 -31 -38 -27 -27
-13 -17 -10 -28 -33 -40 -28 -28
-20 -22 -13 -31 -34 -43 -31 -30
-15 -21 -13 -27 -32 -39 -28 -28
-11 -27 -11 -30 -33 -41 -30 -26
-10 -24 -8 -26 -31 -39 -28 -23
-10 -17 -7 -23 -30 -39 -28 -25
-18 -23 -4 -20 -29 -38 -27 -25
-14 -26 2 -18 -25 -35 -24 -22
-11 -15 2 -15 -26 -33 -22 -24
-14 -22 -1 -21 -30 -39 -29 -31
-11 -25 -5 -26 -35 -43 -32 -34
-15 -26 -3 -23 -32 -41 -30 -31
-19 -12 -5 -24 -34 -40 -29 -31
-11 -26 -2 -26 -31 -38 -28 -25
-12 -25 1 -20 -26 -33 -22 -19
-13 -19 2 -17 -24 -32 -21 -20
-10 -15 2 -15 -25 -32 -22 -22
-5 -20 0 -19 -27 -38 -28 -25
-11 -20 5 -9 -23 -31 -22 -23
-13 -21 6 -9 -22 -33 -24 -24
-9 -17 9 -7 -22 -30 -21 -20
-3 -11 11 -2 -18 -27 -18 -16
-3 -11 6 -4 -22 -30 -20 -21
-3 -30 -2 -13 -31 -41 -29 -27
-6 -32 -2 -12 -30 -38 -27 -25
-5 -27 -2 -10 -31 -40 -30 -28
-3 -23 3 -7 -27 -36 -28 -26
-4 -22 6 -6 -25 -36 -27 -24
-6 -13 9 2 -21 -31 -22 -22
-6 -14 12 7 -19 -29 -21 -21
-10 -19 9 5 -20 -30 -22 -21
-13 -20 7 6 -21 -30 -21 -21
-10 -14 5 6 -24 -31 -21 -22
-9 -23 7 4 -23 -34 -22 -19
-16 -19 10 11 -17 -26 -13 -13
-16 -17 10 12 -18 -27 -14 -17
-5 -14 7 10 -21 -31 -20 -21
-3 -17 8 13 -21 -32 -21 -20
-7 -13 9 21 -19 -29 -19 -19
-10 -7 9 20 -22 -33 -25 -24
-16 -13 17 26 -10 -22 -15 -14
-7 -11 17 30 -6 -19 -13 -12
3 -2 12 32 -10 -20 -17 -19
-5 -16 10 29 -13 -27 -24 -21
-12 -19 12 33 -9 -23 -19 -16
-9 -15 14 40 -7 -23 -23 -18
-11 -18 16 43 -6 -23 -24 -18
-12 -24 18 48 -3 -19 -22 -15
-7 -15 19 56 0 -12 -17 -15
1 -13 20 56 0 -12 -18 -17
2 -14 19 56 2 -9 -17 -15
-6 -14 18 59 2 -9 -16 -15
-4 -8 19 65 4 -6 -13 -15
0 -15 20 63 5 -7 -13 -12
-2 -11 22 67 10 -1 -7 -7
2 -3 23 72 13 2 -5 -9
-1 -6 27 77 17 5 -4 -6
-1 -9 29 79 19 6 -6 -5
4 5 30 86 23 11 -3 -5
-1 -6 27 84 21 8 -5 -8
-3 -7 29 85 24 12 -1 -3
-1 2 29 87 27 16 3 0
10 15 32 91 31 21 9 3
14 4 33 89 33 22 9 6
1 -6 27 86 32 19 7 4
-3 0 28 88 34 21 8 3
2 -1 32 91 37 24 11 6
0 -3 32 90 36 24 13 7
-4 9 36 97 40 33 20 11
0 6 37 96 40 33 19 13
1 7 35 89 40 32 18 13
10 9 32 87 37 31 19 14
13 11 32 87 39 32 19 14
14 7 30 81 36 27 17 15
12 9 33 85 41 33 22 20
11 11 33 86 41 36 25 19
16 17 35 86 42 37 26 19
12 10 34 84 41 36 27 19
15 16 38 92 46 45 34 23
18 19 34 85 41 41 29 20
22 13 34 82 41 42 29 21
17 13 38 85 46 48 36 26
10 14 37 83 46 49 38 27
-1 3 33 76 40 43 34 25
-4 2 33 75 42 43 34 26
3 9 37 80 45 47 36 29
-7 1 38 81 45 45 33 27
-2 -7 34 75 41 39 28 22
4 1 33 78 41 40 30 20
8 3 31 73 38 36 29 18
15 8 34 74 41 42 33 24
17 15 35 74 42 47 35 28
22 19 30 68 39 44 31 24
19 8 27 59 36 39 27 22
18 8 24 55 35 38 27 22
17 15 25 57 36 40 29 21
14 17 27 55 36 39 29 21
9 16 31 56 37 42 31 24
12 17 32 59 38 46 36 24
21 18 31 54 34 43 31 20
22 18 33 51 35 44 35 23
13 17 31 48 34 45 37 22
12 16 26 42 31 42 32 19
7 5 24 31 27 38 25 19
6 6 22 26 25 35 24 19
8 11 22 27 26 37 25 19
4 8 22 24 25 35 24 16
4 1 21 21 23 34 24 16
7 12 19 23 23 36 24 14
3 9 20 21 22 32 20 13
1 1 19 18 21 31 20 14
5 1 15 15 18 28 18 12
12 8 12 14 14 25 17 10
8 -4 10 6 10 19 13 9
2 -1 12 7 9 22 15 11
-1 4 14 9 8 21 14 10
3 2 16 7 8 19 14 10
5 -3 19 6 9 20 13 12
8 5 17 7 9 20 12 7
3 -2 16 6 7 17 9 4
-5 -5 14 2 5 14 7 4
-5 -3 15 3 5 14 8 5
-5 -5 16 5 4 15 10 6
1 -3 12 -4 -2 7 4 5
3 -2 15 0 2 11 8 8
3 2 15 0 0 10 5 4
7 -4 15 0 -2 5 4 1
4 -13 15 -2 -3 2 3 0
-2 -11 18 3 -2 2 5 -2
-9 -5 20 3 -1 0 5 0
-9 -5 17 -1 -2 -2 4 1
-6 -1 19 2 0 0 6 4
0 3 21 5 3 4 9 5
-5 -6 20 0 2 -1 4 4
1 -2 20 1 3 1 5 5
8 8 21 5 2 0 4 3
2 0 25 9 4 0 3 5
5 -2 26 6 4 -1 -1 4
-3 -10 18 2 -4 -7 -5 -4
-9 -17 15 -3 -9 -15 -13 -9
-2 -12 16 -3 -7 -12 -11 -7
-7 -10 17 -2 -5 -9 -10 -5
-7 -8 18 -1 -6 -9 -7 -5
-5 -17 18 -3 -4 -9 -6 -2
-4 -15 18 1 1 -4 -1 -1
-4 -13 22 7 5 -2 1 -2
-3 -12 20 6 3 -7 -8 -6
-4 -17 21 5 2 -8 -13 -5
-1 -6 22 10 5 -4 -9 -6
-6 -12 21 5 4 -6 -10 -5
-11 -14 23 4 6 -1 -4 1
-4 -4 21 4 5 1 -1 2
0 2 19 2 3 -1 -1 -1
-3 -3 17 -3 2 -5 -5 1
-7 -3 18 -1 6 -1 -1 3
-7 -3 21 5 12 3 1 3
-2 -1 23 7 14 4 3 3
5 -3 21 2 12 2 1 2
5 3 22 7 13 5 5 2
-1 -3 23 8 13 5 4 3
-3 -5 21 7 14 4 4 4
0 0 22 9 16 9 7 7
0 2 19 7 14 7 7 4
-5 -16 12 -5 3 -5 -5 -1
-16 -15 11 -2 5 -1 -2 1
-17 -15 14 2 9 2 -2 2
-13 -12 17 5 12 4 0 4
-7 -12 16 3 12 5 1 5
-9 -2 16 6 14 8 3 4
-13 -1 14 2 10 2 -2 1
-10 -7 15 1 11 3 1 4
-7 2 12 0 10 3 1 3
-7 6 11 2 12 5 3 3
0 -10 9 -4 7 1 -1 3
4 -2 7 -6 6 2 1 3
-1 0 8 -3 7 3 2 3
-11 -3 13 -1 10 7 5 5
-8 -2 14 -2 11 7 6 7
-7 4 12 2 11 8 8 5
-4 -5 15 1 10 7 7 6
-3 -5 14 -2 9 6 8 7
-2 -4 13 -5 7 3 6 8
1 5 11 -4 6 3 5 6
0 0 10 -8 4 -2 2 6
-2 -2 7 -8 5 -3 2 6
-13 -11 5 -9 4 -3 -1 3
-14 -15 6 -10 3 -1 -3 2
-17 -15 11 -6 10 4 5 10
-18 -1 9 -2 8 7 6 8
-7 -5 5 -9 2 0 -1 2
-5 -9 8 -10 4 3 2 5
-6 0 11 -5 8 6 7 8
0 16 10 -6 5 5 8 6
7 12 13 -10 5 3 8 7
3 16 13 -8 6 4 11 8
0 9 20 0 13 9 16 11
3 9 23 2 14 10 12 10
4 5 22 0 13 5 5 9
5 14 20 4 14 8 7 8
13 19 24 6 14 9 8 10
8 16 28 8 16 13 14 15
-4 9 26 5 13 11 12 14
-13 8 25 5 10 9 7 10
-10 1 25 0 6 3 1 7
-1 8 25 4 10 6 7 8
-6 10 26 5 10 7 7 8
-8 10 26 3 9 7 9 11
-3 16 22 -2 7 4 7 11
-3 21 20 3 11 10 12 16
-4 20 15 0 10 9 11 16
-2 18 10 -3 10 11 13 18
8 23 3 -7 6 7 11 16
15 24 2 -4 7 11 14 17
14 16 2 -11 3 6 10 16
7 17 1 -11 4 12 14 18
4 24 0 -9 5 13 16 19
16 25 -1 -11 3 13 14 18
20 15 -3 -14 1 8 10 16
8 16 -8 -13 -3 7 8 12
8 6 -9 -17 -5 4 5 11
11 0 -11 -20 -6 4 6 11
13 1 -17 -22 -8 1 5 10
10 -1 -18 -20 -8 3 6 9
5 -13 -16 -22 -9 -1 3 9
6 -8 -14 -17 -6 2 6 10
9 0 -11 -14 -5 5 8 9
3 -3 -7 -11 -2 8 9 9
-5 -9 -5 -10 1 9 10 12
-5 2 -4 -8 -2 8 7 6
-14 -7 -1 -8 -5 5 3 5
-8 -12 1 -9 -7 4 2 6
-8 -13 -2 -10 -9 0 0 5
-13 -16 0 -10 -10 1 0 3
-14 -23 -1 -14 -10 -2 -2 4
-8 -21 -4 -15 -13 -3 -3 1
-2 -14 -6 -13 -16 -4 -6 -2
-9 -13 -4 -11 -17 -5 -4 -2
-14 -27 -1 -9 -14 -4 -3 0
-16 -22 2 -3 -9 2 3 -1
-15 -23 -2 -6 -13 -4 -5 -4
-8 -24 -4 -9 -15 -7 -10 -6
-6 -21 -5 -9 -15 -8 -13 -5
-7 -15 -5 -10 -17 -11 -16 -8
-13 -17 -1 -12 -15 -11 -15 -4
-15 -15 1 -8 -11 -5 -7 1
-12 -20 -1 -8 -11 -3 -6 1
-18 -23 3 -6 -9 0 -2 4
-15 -21 2 -7 -7 1 0 6
-7 2 0 -3 -7 3 1 3
-3 -3 8 2 -2 8 6 8
-6 -5 3 -2 -7 4 5 5
-10 -19 -1 -5 -10 2 4 3
-9 -23 -4 -8 -15 -4 -4 -4
-7 -28 -6 -13 -19 -10 -13 -5
-9 -28 -4 -11 -16 -8 -12 -5
-21 -24 -3 -7 -14 -7 -12 -5
-18 -25 -3 -8 -15 -10 -14 -5
-15 -32 -1 -7 -15 -8 -13 -3
-21 -27 5 2 -12 -5 -10 -4
-22 -25 14 13 -9 -8 -12 -4
-25 -22 26 27 -3 -7 -11 -3
-32 -24 35 45 7 -3 -8 -1
-24 -12 41 57 14 0 -8 -3
-15 -10 44 73 23 4 -6 0
-17 -3 58 93 43 25 12 12
-16 9 72 110 65 50 31 24
-3 24 86 124 93 83 53 39
12 33 100 136 120 110 72 50
17 48 116 160 161 151 98 60
27 58 128 181 211 198 123 75
42 71 133 199 278 267 168 102
60 103 129 208 356 354 227 136
83 133 115 201 421 435 285 171
98 144 85 168 450 477 316 195
97 150 25 115 437 481 328 208
96 143 -35 37 363 424 302 196
85 100 -92 -65 244 318 238 160
77 71 -159 -210 110 197 168 123
50 54 -211 -341 -32 75 102 90
13 14 -245 -435 -162 -41 31 53
-2 3 -256 -494 -244 -108 -11 27
-9 -21 -244 -514 -301 -150 -39 6
-15 -44 -239 -530 -347 -189 -71 -20
-31 -73 -233 -517 -354 -209 -93 -38
-41 -76 -221 -478 -337 -203 -95 -43
-41 -76 -218 -445 -326 -202 -102 -51
-36 -79 -217 -419 -309 -197 -107 -57
-43 -81 -210 -385 -282 -185 -102 -54
-53 -70 -193 -341 -249 -164 -93 -53
-58 -75 -180 -307 -225 -152 -92 -54
-46 -70 -169 -277 -200 -140 -88 -50
-36 -59 -150 -242 -176 -124 -78 -44
-28 -47 -132 -211 -156 -110 -72 -42
-26 -41 -112 -183 -134 -100 -65 -38
-24 -31 -89 -148 -109 -80 -53 -31
-17 -22 -76 -124 -97 -74 -53 -31
-21 -23 -64 -107 -85 -68 -51 -27
-32 -29 -47 -89 -70 -56 -40 -17
-33 -23 -37 -71 -60 -46 -33 -16
-24 -25 -35 -67 -61 -50 -38 -22
-17 -34 -32 -65 -56 -46 -37 -22
-23 -33 -20 -52 -47 -39 -31 -16
-26 -30 -15 -39 -40 -34 -31 -17
-22 -36 -11 -36 -36 -36 -33 -16
-14 -32 -8 -28 -31 -31 -29 -17
-16 -31 -5 -22 -29 -29 -29 -19
-21 -36 -1 -18 -24 -27 -28 -16
-15 -38 1 -17 -22 -25 -26 -15
-16 -23 -2 -14 -24 -25 -25 -19
-15 -28 -3 -16 -26 -29 -28 -20
-12 -33 1 -16 -24 -28 -24 -16
-9 -25 1 -13 -24 -29 -24 -15
-16 -29 3 -10 -25 -28 -25 -16
-12 -30 0 -17 -28 -34 -30 -18
-13 -34 3 -13 -24 -29 -25 -16
-15 -34 6 -9 -22 -28 -27 -17
-8 -30 7 -8 -20 -27 -27 -17
-6 -28 13 -3 -13 -22 -22 -12
-3 -14 14 3 -12 -16 -16 -10
7 -10 10 -4 -17 -22 -21 -14
-2 -26 8 -9 -20 -24 -22 -14
-14 -35 5 -8 -22 -26 -20 -16
-22 -42 1 -9 -25 -31 -27 -21
-18 -49 0 -14 -26 -34 -33 -23
-20 -41 6 -8 -20 -29 -31 -19
-23 -37 10 -2 -17 -28 -31 -19
-21 -35 9 -3 -16 -29 -33 -20
-12 -33 8 -4 -15 -27 -30 -18
-5 -22 9 3 -14 -22 -25 -17
-5 -25 8 1 -18 -26 -27 -18
-4 -24 8 0 -19 -29 -28 -17
-7 -28 9 3 -18 -28 -27 -15
-12 -30 5 1 -24 -35 -35 -22
-10 -35 2 -6 -25 -41 -41 -24
-7 -27 2 -1 -22 -36 -38 -22
-12 -26 7 8 -18 -33 -35 -19
-12 -32 10 12 -13 -30 -34 -17
-18 -39 8 10 -13 -32 -34 -18
-21 -31 10 17 -10 -27 -29 -17
-12 -33 10 15 -10 -30 -31 -20
-7 -29 11 16 -7 -28 -29 -18
-8 -32 13 21 -6 -25 -26 -16
-7 -29 14 21 -7 -25 -27 -18
-9 -39 10 13 -11 -32 -33 -22
-7 -30 10 18 -8 -28 -30 -21
-10 -27 12 24 -9 -29 -30 -21
-10 -29 13 27 -6 -29 -30 -20
-13 -25 15 34 1 -26 -27 -15
-20 -19 18 44 4 -22 -24 -13
-16 -20 18 43 3 -25 -27 -13
-5 -23 16 45 4 -22 -24 -12
-1 -26 13 45 1 -23 -25 -15
-1 -20 15 50 4 -19 -24 -14
-3 -24 16 50 6 -19 -24 -13
-2 -20 16 57 9 -16 -22 -13
-3 -17 20 62 11 -15 -23 -13
-7 -16 19 58 11 -16 -26 -14
-8 -23 19 61 15 -13 -24 -11
-6 -15 19 69 15 -12 -23 -15
-6 -20 18 70 13 -15 -26 -17
-8 -20 19 75 21 -9 -19 -10
-14 -19 24 84 29 -2 -11 -2
-9 -10 24 86 27 -1 -11 -4
-5 -15 24 83 28 -4 -13 -3
-3 -16 23 86 31 0 -13 -4
0 -11 25 91 33 1 -12 -4
-1 -11 27 96 37 5 -8 -2
-4 -14 27 97 42 8 -5 1
1 4 26 101 41 10 -2 3
4 1 27 100 43 11 -1 4
2 -4 28 99 47 13 3 6
2 0 31 105 51 18 8 12
2 6 33 108 53 20 10 12
4 2 34 105 54 20 10 15
6 6 33 105 55 22 11 15
9 12 30 102 51 20 8 12
19 17 29 103 55 23 9 14
15 14 31 103 58 26 11 15
6 17 31 106 57 28 11 14
-3 3 25 97 51 20 3 9
1 9 21 90 49 18 2 10
9 16 22 91 50 22 6 12
10 13 27 95 52 25 11 15
10 8 30 94 56 27 14 20
4 8 30 96 58 32 21 21
3 11 28 93 50 28 18 17
4 14 31 93 50 30 22 21
10 19 29 91 51 32 23 24
16 27 30 96 54 36 26 22
17 23 30 92 55 34 22 22
14 19 26 86 51 30 20 22
6 14 21 79 43 25 17 18
8 10 20 77 37 24 15 15
12 6 21 75 37 24 14 18
6 13 25 81 45 30 19 22
6 22 25 83 44 30 19 21
11 23 23 79 41 29 18 19
15 19 26 79 43 32 22 23
12 24 25 81 42 34 23 20
9 22 21 71 34 27 16 16
4 19 22 71 38 30 17 19
4 13 22 74 41 34 19 21
8 16 20 73 38 32 16 17
16 10 19 67 36 29 14 17
10 12 22 66 38 29 17 16
9 15 23 68 36 29 15 15
12 12 19 63 33 28 14 13
14 12 22 60 37 31 19 18
14 28 21 62 35 34 21 16
10 16 20 58 33 32 19 17
9 13 21 56 35 32 21 19
5 12 23 56 33 32 21 20
1 6 18 50 25 26 15 11
8 3 18 43 25 22 10 10
5 10 20 46 26 25 11 12
-5 10 25 51 27 29 13 14
-3 5 24 47 27 28 13 13
0 1 21 36 21 23 11 11
1 7 17 36 18 24 11 10
7 3 13 30 14 18 6 7
14 1 9 27 12 14 4 6
8 3 13 30 12 16 7 9
-3 12 13 27 9 14 5 7
-8 8 14 21 7 8 2 7
-8 4 16 23 7 12 6 8
-9 3 18 24 3 8 3 4
-1 0 15 21 1 4 1 1
0 -4 13 19 0 4 2 2
6 9 14 26 1 5 1 3
2 7 15 23 -1 -1 -5 1
2 11 11 18 -3 -4 -9 0
10 8 14 20 0 0 -6 1
-11 -7 13 23 0 0 -6 -2
-15 -16 17 21 0 -3 -8 0
-7 -3 19 25 3 3 -2 3
-9 5 21 27 1 3 -1 3
-11 -1 21 24 1 2 -1 3
-2 -5 16 19 -2 -1 -2 1
-3 2 13 22 -5 -3 -3 -2
-17 -15 10 17 -11 -9 -10 -7
-13 -14 8 17 -11 -8 -9 -6
-8 -4 8 19 -10 -8 -8 -6
-7 -1 8 21 -10 -10 -12 -11
-2 -7 11 17 -12 -14 -17 -11
-5 3 17 23 -7 -9 -12 -5
-7 3 16 25 -7 -10 -12 -7
-10 -4 12 22 -10 -15 -16 -10
-5 2 13 19 -11 -16 -17 -10
-5 12 11 20 -11 -13 -15 -11
-8 3 9 15 -13 -16 -20 -13
-4 2 13 19 -8 -11 -13 -6
0 11 16 23 -5 -6 -9 -2
-3 11 14 22 -7 -9 -13 -5
-9 -5 13 18 -8 -13 -19 -8
-5 -2 13 21 -5 -9 -14 -8
-8 -5 15 23 -7 -12 -15 -10
-8 -4 15 19 -9 -14 -15 -9
-6 4 14 17 -9 -15 -15 -6
-4 16 12 23 -7 -10 -11 -6
1 4 12 24 -4 -10 -12 -5
0 4 11 21 -2 -9 -11 -4
-7 2 11 22 -3 -9 -10 -4
-9 1 11 22 -4 -8 -10 -5
0 -6 11 14 -5 -11 -13 -4
7 -1 10 13 -5 -8 -10 -5
6 1 11 18 -5 -9 -9 -6
3 3 13 19 -4 -10 -11 -6
3 2 12 19 -4 -9 -10 -5
1 15 8 21 -5 -8 -9 -9
10 13 7 19 -6 -11 -13 -8
4 9 8 19 -2 -8 -9 -4
-1 6 8 20 -2 -3 -5 -4
1 9 5 17 -4 -5 -9 -9
4 -1 5 13 -4 -8 -12 -6
7 1 9 15 0 -3 -7 -1
8 5 9 17 -1 -4 -8 -4
14 5 7 15 -2 -8 -12 -6
14 5 6 15 -2 -6 -9 -6
1 9 8 21 1 2 -2 -3
-3 5 10 21 4 4 0 1
6 2 8 18 3 3 1 3
8 2 5 17 0 0 0 1
3 12 3 16 -3 -3 -2 -2
5 0 3 11 -5 -7 -6 -3
4 -2 6 13 -2 -3 -1 0
3 8 6 13 -4 -4 -2 -1
14 13 4 8 -6 -6 -4 -3
16 11 5 8 -1 -2 -1 -2
15 12 3 13 1 1 -2 -4
4 -2 0 7 -6 -7 -8 -8
4 -1 3 7 -5 -5 -5 -4
5 3 3 8 -5 -3 -4 -2
4 4 3 10 -6 -3 -6 -1
-4 -3 5 9 -4 -2 -4 2
-3 4 3 8 -4 -1 0 1
2 7 6 12 -3 1 0 1
-6 1 5 10 -7 -2 -2 -1
-16 0 10 13 -3 3 4 3
-8 14 9 15 -5 2 5 2
3 13 6 7 -11 -5 -2 -1
17 13 7 7 -9 -5 -4 2
14 25 12 16 -5 1 0 5
13 27 12 17 -3 1 -1 3
8 21 14 16 0 0 -3 3
1 22 16 20 4 6 3 7
-1 17 14 15 1 4 1 5
3 18 12 10 -4 0 -1 2
0 13 9 8 -5 -1 -2 0
-5 13 11 15 -3 2 0 0
1 13 15 15 -2 2 -1 2
1 18 16 11 -1 2 1 5
5 31 13 10 -4 1 2 4
2 29 17 15 -1 3 5 7
-1 18 19 12 0 4 6 11
1 23 17 12 1 5 8 11
2 30 15 13 0 5 8 9
4 32 9 10 -1 4 7 9
14 32 5 5 0 7 13 12
12 37 2 6 0 8 16 12
9 36 -1 3 -1 6 15 12
13 37 -5 -3 -4 3 13 13
10 31 -8 -7 -11 -2 11 10
13 32 -9 -9 -13 -4 7 9
16 32 -15 -16 -16 -9 3 9
16 40 -15 -12 -10 -4 8 10
34 46 -16 -11 -13 -5 5 5
32 34 -19 -14 -15 -8 0 4
12 22 -18 -15 -14 -4 7 9
11 32 -18 -9 -12 4 13 11
18 21 -24 -13 -16 0 7 8
25 23 -22 -12 -13 0 9 10
23 26 -20 -7 -10 -2 10 8
13 14 -21 -7 -14 -8 2 4
12 4 -18 -9 -14 -13 -1 6
14 14 -16 -11 -14 -12 -1 3
11 15 -13 -9 -14 -10 -1 1
9 3 -11 -10 -15 -10 -3 -1
6 -4 -13 -16 -20 -10 -5 -4
7 4 -13 -13 -22 -7 -4 -7
5 -2 -17 -16 -27 -14 -9 -10
6 -11 -18 -17 -29 -17 -9 -8
9 -9 -17 -15 -32 -19 -9 -10
6 -10 -17 -14 -33 -22 -11 -14
6 -13 -16 -15 -29 -22 -12 -12
5 -11 -15 -10 -26 -19 -8 -10
0 -13 -10 -5 -24 -18 -6 -8
-2 -8 -11 -7 -26 -19 -10 -10
-1 -10 -11 -12 -27 -20 -12 -11
-3 -6 -10 -6 -26 -14 -7 -12
8 -11 -16 -9 -30 -20 -12 -15
10 -14 -14 -11 -29 -21 -12 -13
8 -8 -14 -12 -31 -23 -13 -14
4 -12 -14 -11 -30 -23 -16 -14
2 -17 -13 -13 -27 -21 -16 -10
4 -12 -13 -10 -25 -15 -9 -10
7 -11 -15 -13 -27 -18 -14 -15
5 -10 -17 -13 -28 -20 -18 -18
1 -14 -13 -10 -24 -15 -13 -13
-2 -2 -11 -6 -23 -10 -10 -13
-1 -6 -12 -8 -22 -11 -10 -12
-2 -11 -12 -8 -20 -12 -10 -10
-1 -9 -11 -8 -22 -13 -10 -9
3 -5 -13 -9 -27 -16 -13 -13
3 -16 -13 -15 -26 -17 -12 -12
5 -12 -12 -14 -23 -14 -8 -13
3 -15 -10 -8 -23 -13 -10 -14
-2 -17 -4 1 -20 -16 -14 -16
-4 -11 4 9 -19 -20 -17 -17
-5 -1 14 27 -14 -18 -16 -19
-7 -6 24 42 -5 -14 -12 -14
-6 -1 32 58 6 -9 -9 -10
-1 11 36 79 19 -2 -6 -9
3 29 46 96 35 15 6 -1
9 30 66 108 62 45 31 20
12 47 79 122 88 78 55 34
35 66 93 140 118 107 72 42
41 72 109 163 170 152 98 57
43 85 121 184 235 214 138 82
55 110 118 195 308 298 194 110
74 128 103 189 390 390 255 145
91 145 80 167 448 466 310 179
101 160 42 132 470 505 342 202
97 171 -22 61 440 494 346 212
91 147 -71 -20 356 421 307 195
86 121 -127 -124 234 311 243 158
76 88 -192 -280 78 183 174 123
51 56 -240 -407 -86 39 97 86
29 31 -271 -488 -214 -73 29 49
8 15 -275 -522 -295 -135 -12 19
-2 -7 -268 -539 -361 -191 -55 -11
-11 -38 -255 -534 -391 -224 -85 -32
-24 -55 -243 -505 -384 -231 -98 -45
-29 -62 -234 -469 -373 -233 -108 -56
-27 -69 -231 -442 -357 -231 -116 -61
-26 -67 -231 -413 -334 -221 -114 -65
-25 -74 -227 -383 -314 -212 -114 -70
-17 -65 -216 -352 -286 -200 -115 -72
-23 -64 -196 -313 -250 -179 -105 -66
-37 -51 -179 -273 -218 -156 -91 -58
-32 -42 -161 -245 -197 -143 -84 -54
-20 -26 -142 -213 -171 -127 -75 -50
-26 -22 -117 -174 -141 -105 -61 -40
-28 -17 -98 -146 -124 -95 -55 -38
-23 -21 -88 -132 -114 -90 -54 -35
-14 -9 -75 -115 -99 -78 -44 -31
-7 -4 -61 -98 -88 -67 -39 -29
-11 -15 -53 -88 -83 -65 -41 -32
-10 -20 -46 -77 -73 -59 -40 -29
2 -6 -40 -63 -67 -51 -33 -30
-2 -22 -35 -56 -67 -52 -34 -32
-8 -26 -28 -46 -59 -49 -30 -29
-17 -30 -21 -35 -53 -44 -27 -25
-13 -24 -14 -27 -50 -45 -29 -27
-5 -25 -13 -26 -48 -49 -37 -29
-8 -20 -9 -16 -40 -42 -33 -26
-7 -12 -12 -15 -41 -43 -37 -28
-5 -15 -15 -17 -42 -43 -37 -29
-2 -23 -11 -16 -36 -36 -31 -23
-2 -11 -10 -14 -36 -31 -25 -24
0 -16 -8 -14 -40 -37 -27 -25
0 -17 -5 -11 -39 -38 -27 -25
-5 -19 -5 -10 -41 -39 -29 -26
-5 -18 -4 -9 -42 -41 -31 -27
-7 -26 -1 -11 -40 -42 -35 -25
-6 -23 0 -6 -33 -35 -30 -25
-6 -23 2 -5 -32 -34 -28 -26
-6 -21 0 -10 -36 -36 -29 -28
-10 -25 3 -11 -33 -33 -23 -22
-7 -16 1 -7 -31 -30 -18 -21
-4 -24 -3 -11 -36 -36 -24 -25
-6 -29 -3 -10 -36 -38 -26 -27
-9 -24 2 -6 -33 -36 -25 -26
-11 -20 2 -5 -35 -38 -28 -29
-8 -26 2 -9 -34 -41 -31 -28
-2 -22 2 -6 -32 -37 -27 -27
-2 -23 3 -4 -33 -35 -25 -26
-3 -27 2 -4 -32 -35 -25 -25
-4 -24 3 -6 -30 -33 -19 -21
-3 -15 3 -1 -28 -30 -16 -20
-3 -20 1 -3 -34 -36 -23 -24
-2 -24 2 -4 -33 -36 -24 -24
-2 -20 9 3 -27 -31 -18 -20
-12 -22 10 9 -25 -30 -17 -22
-26 -40 8 4 -26 -34 -22 -23
-22 -34 8 4 -25 -32 -24 -24
-8 -26 4 1 -28 -36 -27 -27
-3 -28 -1 -1 -31 -40 -30 -32
-3 -24 2 0 -27 -35 -25 -28
-5 -11 2 5 -27 -32 -23 -29
-11 -20 6 10 -24 -33 -21 -24
-18 -25 11 16 -18 -29 -17 -17
-18 -25 13 19 -16 -28 -16 -18
-10 -25 9 21 -21 -33 -22 -25
-11 -30 11 19 -21 -34 -23 -21
-7 -23 10 21 -18 -29 -20 -21
1 -19 6 19 -21 -33 -22 -26
4 -21 6 17 -21 -33 -22 -25
4 -18 5 18 -17 -31 -20 -22
11 -3 4 26 -16 -30 -20 -24
17 -2 7 31 -15 -34 -24 -23
28 2 11 35 -11 -32 -22 -20
19 -2 13 40 -6 -27 -18 -18
-1 -9 17 52 2 -19 -11 -16
-15 -29 18 50 2 -19 -12 -17
-21 -25 19 54 6 -14 -7 -15
-24 -21 20 59 9 -10 -4 -15
-18 -15 19 57 7 -14 -7 -16
-17 -12 19 59 12 -12 -8 -11
-15 -8 19 66 16 -8 -6 -10
-4 -5 17 67 13 -12 -9 -13
-6 -11 20 72 18 -8 -6 -9
-9 -10 20 75 20 -4 -5 -9
-10 -5 23 80 22 -2 -3 -7
1 -8 21 77 23 -4 -5 -4
5 0 22 83 27 1 0 -4
6 5 24 85 29 3 2 -4
9 5 22 86 32 5 6 -1
6 4 21 88 35 9 12 1
3 12 24 92 37 12 16 1
8 12 25 91 35 11 14 1
7 13 24 90 37 13 16 3
7 10 25 93 40 15 17 5
6 11 27 93 39 15 15 5
3 7 30 92 43 20 15 11
3 10 28 94 44 23 20 12
11 15 27 91 40 20 20 8
10 16 28 89 41 19 23 10
9 16 29 90 47 23 27 14
11 27 29 92 44 22 28 13
10 27 28 88 41 18 23 13
8 18 26 87 43 19 22 14
6 14 27 88 45 24 23 14
-2 19 26 84 42 24 23 13
3 17 22 76 42 20 21 15
12 20 22 80 44 23 24 15
15 25 18 76 39 20 24 14
10 23 18 73 37 21 25 15
5 25 23 73 43 27 33 22
4 30 22 76 40 29 34 17
8 23 21 72 34 23 27 13
10 23 19 70 35 23 27 12
6 24 21 72 37 26 30 14
5 23 24 74 37 25 29 15
2 14 26 71 39 21 23 15
2 24 25 72 43 25 26 17
5 30 21 69 41 25 27 19
11 24 20 64 38 24 28 20
14 21 16 59 36 23 28 17
8 24 18 63 39 29 33 19
8 20 18 57 32 23 28 18
13 20 18 56 33 24 29 17
12 22 16 55 33 25 30 16
6 15 15 53 31 25 29 15
16 13 12 46 30 19 25 13
15 24 14 47 33 21 27 13
10 27 16 45 33 23 29 14
14 20 14 37 30 21 28 13
10 15 13 33 30 22 28 14
10 26 12 34 32 26 32 13
12 27 18 34 32 28 32 15
12 25 21 33 33 29 33 18
2 19 18 31 32 27 32 16
-6 16 15 25 22 17 25 9
-4 10 13 17 19 12 19 9
-3 12 11 15 19 14 17 6
-15 10 14 15 19 15 18 9
-14 6 12 9 15 11 15 8
2 11 7 3 13 7 13 4
4 21 10 8 13 7 13 4
-5 17 11 7 11 3 11 5
-10 13 11 6 11 2 12 7
-2 15 11 4 11 3 12 5
0 14 11 4 8 0 9 2
-3 1 12 -3 4 -5 3 0
-6 7 13 -1 6 -1 8 2
-5 11 14 0 4 -2 9 3
-2 11 15 0 3 -4 9 3
-5 9 15 2 6 -3 11 3
-7 9 13 6 3 -5 8 -1
-1 5 12 2 -2 -11 1 -3
-8 -5 12 0 -2 -11 0 -5
-19 -6 14 1 -2 -9 2 -5
-16 0 14 2 -4 -12 -2 -8
-7 -3 14 -3 -3 -15 -5 -7
-6 0 14 -2 -1 -14 -4 -7
-5 5 15 -1 -2 -14 -5 -8
-4 6 13 -4 -4 -15 -5 -9
-10 5 14 -2 0 -12 -3 -7
-14 3 15 3 -1 -10 -3 -8
-17 -4 15 2 -3 -14 -6 -7
-21 -6 17 5 3 -13 -5 -2
-20 -2 18 8 3 -11 -4 -2
-20 -6 19 7 2 -11 -5 -5
-19 -13 19 0 1 -12 -5 -5
-14 -8 15 -1 -1 -13 -6 -9
-5 -4 14 1 -3 -17 -9 -12
-12 -4 18 5 0 -14 -4 -7
-18 -7 18 5 4 -13 -2 -5
-13 4 15 7 1 -12 -2 -9
-6 -2 13 1 -5 -16 -9 -12
-6 -6 16 2 -2 -14 -8 -8
-11 -2 17 6 2 -9 -5 -6
-14 -3 17 9 1 -13 -7 -8
-15 -11 18 2 0 -18 -11 -8
-15 -6 17 4 3 -13 -5 -6
-11 3 18 7 2 -12 -4 -5
-10 2 21 9 5 -10 -1 -1
-8 3 18 6 7 -10 -2 -2
-7 8 16 7 4 -8 -4 -6
-14 -7 15 4 2 -12 -11 -9
-10 -1 15 2 4 -12 -11 -8
-6 7 14 3 5 -11 -10 -10
-11 2 18 8 6 -8 -6 -8
-11 -11 16 2 4 -12 -8 -7
-6 -9 15 2 7 -9 -4 -5
-7 2 15 1 4 -9 -5 -6
-5 6 18 1 5 -8 -3 -4
-7 8 21 6 15 0 5 2
-13 13 22 12 18 5 9 2
-10 2 17 7 12 -1 2 -3
-6 -5 13 2 9 -3 -1 -5
-2 3 13 1 9 -1 0 -6
-2 11 16 3 12 4 5 -2
0 5 19 0 16 5 7 4
-10 10 20 3 19 8 10 5
-9 7 15 2 13 4 6 0
-9 -1 10 -4 9 0 2 -1
-7 0 10 -4 12 4 6 2
-8 6 11 -1 11 5 8 2
-13 -1 11 -4 7 0 2 -1
-10 3 12 -2 11 1 3 1
-14 4 12 -1 11 3 3 0
-22 -7 12 -1 6 1 1 -2
-11 -8 13 -3 7 1 0 1
-3 -3 10 -4 6 2 1 -1
3 1 10 -5 3 -1 -1 -3
-4 0 13 -5 5 1 3 0
-18 -6 15 -2 9 5 8 5
-16 4 12 -1 6 2 6 0
-9 2 12 -4 2 -2 1 -2
-8 4 13 -3 5 -1 -2 -1
-7 4 17 0 7 3 -3 1
-1 2 14 -4 2 0 -6 -2
2 -4 13 -12 2 -1 -6 0
-4 4 7 -13 1 -1 -5 -5
-8 2 9 -10 1 0 -2 -3
-11 4 15 -5 7 5 5 4
-20 4 18 -3 11 10 11 10
-13 16 17 -2 9 10 9 5
-3 9 16 -7 3 4 4 3
-9 7 23 -4 8 8 7 7
-11 14 27 1 13 13 11 9
-15 18 28 2 10 9 4 4
0 15 30 1 11 6 0 6
9 24 31 4 13 9 3 7
2 22 29 4 10 9 4 5
-8 13 32 6 13 11 7 8
-20 7 31 6 14 14 11 9
-20 17 31 8 14 17 12 8
-11 20 33 7 15 16 11 10
-12 12 29 3 11 12 7 8
-17 11 26 -2 12 14 8 7
-17 17 27 -3 13 15 9 9
-14 21 27 -3 14 15 12 13
-6 31 25 0 19 21 19 17
-1 36 19 -4 16 19 15 16
1 32 14 -10 14 15 10 14
-2 32 15 -8 18 18 11 17
4 35 12 -5 17 18 11 14
1 23 10 -11 14 12 5 11
-6 19 9 -11 15 14 9 11
-2 22 8 -10 18 18 14 13
-1 20 8 -10 15 16 13 13
-3 12 7 -15 15 14 11 14
-1 14 0 -18 12 11 7 6
9 22 -4 -20 8 8 5 3
14 14 -8 -23 5 6 4 3
11 9 -9 -26 6 8 3 5
1 13 -11 -24 2 8 2 4
1 9 -12 -25 -2 4 0 4
7 6 -8 -19 2 9 5 8
1 9 -7 -19 1 9 6 7
-6 5 -5 -19 -1 4 2 2
2 -2 -3 -21 -1 2 0 3
7 9 0 -18 1 4 1 1
-5 10 6 -15 3 5 0 3
-14 -5 6 -16 0 2 -3 3
-7 -5 1 -21 -3 -1 -8 -2
1 7 0 -17 -4 0 -8 -5
0 -6 -1 -22 -8 -6 -11 -8
-11 -19 -3 -24 -7 -7 -12 -11
-9 -10 -2 -23 -7 -4 -9 -10
-6 -9 0 -23 -8 -7 -11 -12
-12 -13 1 -27 -8 -10 -12 -9
-11 -12 2 -26 -7 -8 -8 -9
-9 -12 -2 -26 -11 -13 -11 -13
-3 -16 -2 -26 -11 -15 -11 -14
-7 -13 0 -25 -7 -12 -8 -10
-14 -7 3 -21 -6 -9 -5 -8
-15 -16 3 -24 -5 -13 -7 -8
-15 -22 2 -23 -5 -13 -7 -9
-9 -15 3 -21 -1 -11 -8 -8
-4 -3 6 -19 -1 -12 -7 -6
-7 -13 6 -21 -2 -13 -7 -4
-12 -15 3 -22 -3 -12 -6 -7
-19 -26 -3 -26 -9 -19 -14 -14
-17 -29 -3 -27 -11 -22 -20 -16
1 -13 1 -23 -5 -17 -14 -10
3 -1 4 -18 -4 -12 -10 -10
7 0 4 -19 -6 -16 -9 -9
9 -5 5 -20 -6 -13 -6 -9
5 -6 6 -17 -3 -10 -3 -7
-3 -11 6 -19 -3 -12 -7 -9
-9 -18 7 -22 -1 -14 -11 -10
-13 -19 11 -14 2 -11 -14 -12
-13 -20 20 -6 2 -16 -17 -15
-12 -20 28 6 5 -21 -21 -17
-7 -6 33 23 14 -18 -17 -15
-7 4 44 45 27 -6 -6 -8
-11 2 55 68 41 2 -2 -2
2 13 66 87 56 15 8 4
5 23 73 97 70 32 22 10
-7 33 86 110 95 63 44 26
-4 43 102 124 123 92 63 40
2 48 115 145 165 135 87 50
11 64 131 167 223 188 118 67
23 76 137 176 290 258 164 93
41 97 130 175 374 353 227 129
58 132 113 161 453 452 294 169
73 147 78 127 493 507 334 197
81 159 21 78 494 525 353 216
84 163 -40 6 437 482 340 214
83 139 -94 -87 322 374 274 176
71 84 -161 -232 175 244 198 136
52 57 -218 -375 8 102 121 94
32 38 -251 -470 -150 -36 44 56
19 21 -262 -529 -254 -120 -8 28
3 0 -256 -548 -318 -170 -42 5
-16 -26 -247 -553 -376 -215 -78 -24
-23 -50 -242 -540 -392 -241 -108 -46
-33 -66 -231 -503 -374 -240 -117 -54
-33 -69 -226 -467 -356 -239 -123 -64
-33 -71 -225 -437 -340 -235 -130 -72
-34 -80 -215 -403 -311 -220 -126 -69
-32 -66 -204 -365 -279 -201 -116 -65
-38 -64 -193 -330 -252 -188 -113 -67
-40 -73 -183 -301 -229 -179 -113 -70
-32 -52 -161 -264 -198 -155 -96 -60
-25 -30 -134 -221 -168 -132 -79 -49
-23 -23 -108 -187 -142 -115 -71 -41
-19 -17 -85 -152 -118 -97 -59 -34
-17 -16 -68 -123 -99 -84 -49 -30
-22 -16 -54 -102 -86 -76 -46 -26
-19 -22 -46 -93 -76 -71 -42 -22
-14 -18 -41 -82 -70 -64 -38 -21
-10 -9 -32 -69 -61 -56 -32 -18
-16 -12 -23 -57 -52 -51 -29 -17
-10 -7 -16 -47 -43 -43 -24 -11
4 0 -10 -36 -39 -40 -21 -12
4 -8 -9 -36 -40 -44 -27 -17
9 -9 -2 -26 -34 -40 -26 -16
20 2 6 -16 -26 -34 -22 -14
29 15 12 -10 -22 -33 -20 -12
12 -5 8 -15 -24 -35 -23 -14
-4 -25 1 -17 -30 -37 -27 -18
-14 -35 -3 -20 -34 -39 -33 -22
-15 -41 -3 -22 -36 -42 -34 -22
-15 -39 -2 -20 -33 -38 -30 -19
-19 -24 0 -14 -32 -36 -30 -21
-11 -28 2 -15 -32 -39 -33 -21
-3 -33 4 -14 -32 -40 -34 -20
-16 -35 6 -11 -30 -37 -32 -21
-27 -36 3 -14 -34 -43 -37 -25
-16 -42 1 -19 -35 -44 -37 -26
-7 -31 4 -13 -32 -36 -28 -21
-7 -28 6 -10 -29 -32 -26 -19
-4 -27 4 -15 -33 -37 -29 -23
-4 -26 2 -16 -34 -36 -27 -22
-3 -20 4 -9 -33 -34 -26 -22
-1 -30 6 -10 -33 -35 -27 -21
-9 -35 8 -7 -30 -33 -25 -20
-7 -28 9 -2 -27 -29 -24 -19
-3 -25 7 -5 -33 -35 -31 -25
4 -33 6 -8 -33 -36 -32 -21
-1 -24 8 -2 -29 -29 -26 -16
0 -25 8 -2 -31 -31 -26 -18
-3 -29 6 -5 -33 -36 -29 -19
-7 -30 6 -2 -30 -32 -24 -14
-12 -26 9 5 -29 -30 -23 -15
-10 -31 11 4 -30 -34 -25 -15
-6 -31 9 2 -30 -36 -27 -20
-3 -27 11 7 -30 -32 -25 -18
0 -27 14 9 -30 -33 -27 -20
3 -22 11 5 -31 -35 -26 -18
-2 -23 12 7 -30 -30 -22 -16
-8 -23 12 7 -30 -30 -20 -15
-5 -21 12 6 -28 -30 -22 -13
-3 -22 11 6 -28 -29 -22 -12
-11 -21 12 13 -26 -26 -22 -17
-7 -29 12 10 -28 -29 -27 -20
-3 -25 14 14 -25 -24 -23 -18
-5 -16 15 19 -23 -21 -20 -19
-6 -17 19 23 -21 -20 -20 -18
6 -20 18 21 -19 -20 -21 -15
13 -13 18 28 -17 -15 -18 -14
13 -11 18 33 -15 -14 -16 -13
4 -19 16 31 -17 -17 -18 -14
-1 -24 15 33 -17 -16 -15 -13
-4 -18 16 40 -17 -14 -15 -16
-6 -24 20 44 -12 -15 -18 -13
-9 -27 21 48 -8 -16 -24 -14
1 -20 21 55 -6 -16 -23 -15
3 -14 19 56 -7 -19 -25 -18
8 -16 19 55 -3 -16 -22 -14
11 -11 23 64 5 -6 -15 -9
14 -6 26 70 8 -4 -12 -7
24 2 24 70 7 -5 -13 -7
11 -7 23 71 8 -2 -9 -5
-10 -19 21 75 5 -3 -11 -9
-4 -22 24 76 7 -5 -13 -7
1 -19 25 80 11 -3 -12 -6
4 -12 28 87 16 2 -8 -5
11 -6 29 91 16 2 -7 -5
20 -4 34 92 24 8 -1 3
27 9 36 99 29 14 6 8
27 14 37 101 33 15 9 10
15 2 33 98 31 11 7 8
13 4 33 101 33 14 11 9
14 18 37 107 37 20 15 12
14 6 38 101 36 17 12 10
13 2 36 97 35 18 14 11
8 8 39 104 41 25 21 17
5 6 37 102 39 24 19 16
1 -5 31 91 36 21 16 13
0 0 29 93 34 25 20 15
1 -1 30 94 35 28 22 16
11 -1 28 89 32 24 20 14
16 8 29 92 35 28 24 17
18 16 31 97 36 30 26 15
20 11 32 96 35 29 25 15
25 11 31 92 33 27 22 14
16 13 31 92 34 29 22 14
17 16 32 91 34 29 20 16
16 9 31 87 34 29 20 18
10 10 28 83 31 27 20 17
9 17 26 81 29 25 20 16
14 19 21 76 25 22 17 15
12 11 26 83 32 30 26 21
13 18 29 87 32 32 29 21
20 17 31 85 30 31 27 20
20 15 33 85 32 32 29 22
27 31 34 87 34 37 33 24
33 34 38 87 34 39 36 27
29 20 35 80 34 37 35 28
10 5 30 72 29 33 32 22
7 12 32 68 29 34 31 22
4 8 32 68 30 34 29 23
9 10 33 69 30 35 30 24
16 20 33 73 28 35 29 21
18 18 32 69 25 31 25 19
18 14 31 66 27 31 26 19
18 15 32 66 28 34 29 20
22 12 30 59 22 29 23 15
19 7 29 53 24 27 25 19
12 12 28 54 26 30 29 21
12 13 24 47 21 24 24 16
16 16 25 46 20 24 24 18
17 18 26 46 23 29 30 22
15 17 24 45 18 26 27 17
13 12 20 36 10 18 18 10
6 8 24 35 11 19 20 12
13 12 24 35 11 20 21 12
11 10 25 32 7 17 18 10
16 1 25 25 5 12 14 9
22 9 23 24 2 13 14 8
19 9 20 19 -1 10 11 5
10 5 21 17 -1 9 10 7
9 5 23 21 3 13 16 10
6 9 20 20 -1 8 12 6
3 0 18 15 -4 2 7 3
5 -5 18 13 -4 2 7 4
-2 -1 18 13 -4 2 7 3
5 1 18 12 -5 1 5 3
8 -5 15 7 -6 -2 2 2
2 4 15 9 -6 0 4 2
3 3 14 6 -8 -3 1 -1
-1 -10 14 5 -10 -5 -1 -1
3 -6 17 9 -6 -1 4 2
4 1 17 12 -7 -4 3 -1
4 -8 16 8 -12 -9 -2 -4
4 -7 20 9 -10 -7 1 -1
-2 -6 20 11 -8 -5 2 -1
-1 -7 21 11 -10 -8 -1 -3
3 -11 21 8 -8 -7 -1 -1
9 -3 21 11 -8 -7 0 -1
14 10 23 14 -6 -5 1 2
17 11 24 12 -9 -5 3 5
14 10 23 13 -8 -2 5 4
15 17 24 18 -9 -2 4 2
12 18 24 14 -9 -7 -2 0
9 2 22 12 -12 -9 -5 -4
2 -9 21 13 -13 -10 -5 -6
-18 -24 18 11 -16 -15 -11 -10
-24 -34 17 6 -15 -14 -10 -10
-16 -22 18 9 -13 -10 -6 -7
-13 -15 16 6 -16 -13 -9 -9
2 -14 12 1 -21 -19 -14 -12
4 -14 14 6 -16 -14 -8 -9
-5 -2 18 12 -14 -9 -4 -10
-8 -10 23 14 -9 -6 0 -6
-14 -13 22 12 -8 -5 0 -4
-10 -11 21 13 -9 -4 0 -5
0 -13 18 8 -12 -7 -6 -9
-1 -14 21 5 -6 -5 -5 -2
-3 -1 22 8 -1 0 1 0
-3 1 21 9 -2 0 -2 -3
-6 -10 18 4 -6 -3 -8 -5
0 -6 20 10 -1 1 -4 -2
-3 -2 19 13 -6 -1 -5 -5
-4 -10 19 12 -7 -4 -7 -6
0 -6 14 7 -12 -7 -11 -10
-5 -2 16 11 -8 -3 -6 -8
-8 -2 17 11 -8 -1 -6 -7
-7 -15 17 6 -5 -2 -6 -3
2 -7 14 4 -6 0 -5 -5
4 -6 14 6 -6 2 -1 -4
0 -14 14 1 -7 2 -1 -2
-6 -10 17 7 -2 9 7 3
1 -3 15 8 -6 8 7 -2
10 -1 16 6 -7 6 5 -2
6 -6 16 6 -5 7 2 -1
1 -4 15 9 -5 7 0 -3
-8 -10 11 1 -13 -2 -7 -9
-3 -13 13 -1 -9 -1 -4 -3
1 -5 11 1 -7 1 -1 -1
4 -4 12 4 -6 1 0 0
4 -8 12 2 -6 0 -3 -1
4 -5 13 4 -2 4 2 0
3 5 14 9 -3 5 4 -1
2 1 15 7 -3 5 3 -1
0 -4 16 6 -3 4 3 1
3 1 16 7 -2 7 8 2
4 -5 13 3 -7 2 3 -1
8 -10 14 0 -6 2 4 2
5 -2 12 0 -6 4 5 -1
0 1 13 -1 -7 3 3 -1
15 6 13 -2 -8 2 1 0
12 2 12 -1 -7 4 3 0
6 -1 10 -3 -10 2 0 -3
-3 -10 9 -7 -11 -1 -4 -6
-5 -12 10 -6 -10 1 -2 -3
5 -3 13 -2 -7 4 1 -1
10 0 11 -6 -12 -1 -3 -5
1 -11 11 -10 -11 -1 -3 -4
-6 -14 9 -10 -11 0 -2 -4
-10 -14 11 -10 -11 0 -1 -4
-14 -12 14 -7 -8 3 2 2
-3 -1 16 -2 -3 9 8 6
2 9 16 1 -3 9 8 3
-7 5 22 4 0 10 10 5
-13 2 21 1 -2 8 8 4
-18 8 25 8 3 14 12 8
-3 8 21 2 -3 7 6 3
11 2 17 -4 -7 1 3 1
2 8 22 2 -4 7 9 5
1 10 26 5 -2 8 10 6
3 7 27 4 -4 6 7 6
-2 7 26 5 -3 6 5 4
0 15 25 8 -4 5 3 0
1 15 31 8 2 8 6 6
-1 14 30 8 3 10 10 8
-5 15 27 8 3 10 11 7
-9 16 27 7 5 12 11 10
-6 15 22 3 5 12 13 12
5 22 10 -5 -1 10 13 9
5 24 7 -7 -1 13 15 10
6 18 7 -8 0 14 17 12
14 27 4 -8 1 16 20 13
13 25 -4 -11 -7 10 17 7
8 19 -6 -17 -10 6 14 5
19 22 -6 -18 -7 8 14 8
24 31 -5 -12 -3 12 13 9
14 22 -6 -13 -7 7 5 6
3 2 -10 -18 -10 3 2 6
4 8 -14 -17 -12 4 1 4
1 8 -14 -16 -13 4 2 4
-1 1 -14 -20 -14 5 4 5
9 6 -17 -24 -14 6 6 3
13 12 -18 -20 -15 4 2 0
11 1 -14 -18 -14 4 0 0
15 6 -12 -17 -11 5 4 2
12 17 -8 -12 -8 10 10 4
10 11 -6 -13 -10 6 7 3
-4 -7 -8 -21 -14 0 2 0
-12 -6 -8 -19 -15 -1 3 0
-11 -9 -8 -19 -17 -3 -2 -4
-2 -9 -11 -24 -22 -9 -10 -8
-4 -11 -9 -20 -19 -6 -9 -6
-2 -9 -11 -20 -25 -13 -16 -12
-6 -13 -9 -22 -26 -16 -18 -13
-7 -18 -8 -19 -23 -14 -15 -11
-8 -8 -7 -17 -22 -11 -12 -15
-4 -6 -10 -24 -28 -17 -18 -19
-5 -19 -11 -30 -27 -18 -20 -16
0 -12 -10 -26 -24 -14 -17 -14
-1 -5 -9 -25 -24 -13 -15 -14
-5 -7 -14 -30 -27 -17 -18 -15
-6 -12 -11 -26 -22 -11 -10 -11
-13 -13 -10 -21 -23 -11 -10 -13
-5 -16 -9 -24 -25 -13 -13 -14
3 -13 -11 -26 -25 -14 -14 -15
-1 -8 -7 -20 -20 -8 -8 -10
1 -3 -5 -18 -18 -7 -7 -7
7 -7 -4 -22 -16 -8 -9 -6
7 -1 -10 -25 -19 -12 -14 -10
3 -10 -13 -28 -24 -15 -19 -15
-2 -19 -12 -31 -26 -18 -20 -15
-13 -14 -10 -27 -20 -12 -13 -11
-25 -18 -8 -21 -19 -8 -11 -9
-17 -19 -9 -26 -22 -13 -15 -12
-8 -13 -11 -27 -23 -15 -15 -13
-5 -7 -13 -25 -22 -16 -17 -15
-10 -19 -13 -25 -25 -21 -24 -16
-6 -21 -6 -20 -19 -20 -22 -14
-9 -16 1 -8 -17 -19 -22 -13
-14 -13 13 9 -10 -17 -20 -12
-12 -14 21 22 -5 -18 -20 -11
-13 -5 31 42 10 -10 -13 -7
-11 9 41 66 22 -3 -8 -4
-6 6 51 79 35 8 -1 1
-6 18 63 90 53 30 16 12
-4 39 81 110 86 68 45 32
9 49 97 127 114 98 64 45
22 58 109 145 159 136 86 58
40 82 118 162 213 189 119 72
50 98 118 172 280 258 165 97
54 115 115 179 365 350 226 138
66 144 94 171 438 435 288 176
83 164 49 146 466 478 317 193
98 173 -13 96 456 480 328 206
91 147 -76 10 371 417 298 192
90 113 -141 -103 242 308 234 155
73 76 -209 -255 97 184 162 117
60 48 -261 -397 -56 50 86 79
33 29 -283 -480 -184 -61 23 46
16 12 -282 -525 -263 -125 -19 22
0 -16 -278 -554 -327 -179 -61 -5
-13 -42 -273 -563 -368 -215 -91 -29
-29 -54 -266 -539 -377 -232 -113 -51
-34 -65 -253 -498 -358 -230 -121 -57
-39 -75 -250 -464 -339 -225 -124 -62
-45 -75 -244 -428 -317 -216 -124 -65
-43 -68 -232 -393 -292 -204 -121 -65
-35 -69 -217 -357 -260 -187 -114 -61
-36 -57 -204 -320 -232 -168 -105 -58
-39 -51 -181 -278 -202 -149 -96 -54
-41 -43 -155 -242 -174 -131 -85 -45
-30 -33 -132 -205 -146 -111 -72 -37
-29 -23 -111 -172 -125 -97 -63 -35
-30 -24 -92 -145 -108 -86 -57 -29
-24 -16 -75 -119 -93 -75 -50 -24
-27 -6 -61 -98 -75 -62 -40 -20
-23 -14 -54 -89 -73 -62 -41 -21
-17 -21 -49 -83 -66 -60 -40 -20
-19 -12 -41 -68 -55 -49 -32 -15
-18 -7 -33 -57 -48 -44 -28 -13
-9 -13 -32 -55 -51 -46 -33 -17
1 -14 -32 -49 -48 -44 -32 -21
-6 -9 -23 -36 -42 -37 -27 -21
-12 -18 -17 -30 -38 -34 -25 -18
-11 -17 -14 -26 -35 -33 -23 -20
-6 -10 -14 -22 -31 -28 -20 -21
-2 -11 -14 -23 -33 -32 -24 -22
-10 -25 -11 -22 -29 -30 -24 -18
-12 -22 -13 -20 -29 -27 -23 -19
-13 -16 -13 -20 -29 -28 -25 -19
-15 -25 -14 -21 -33 -33 -30 -21
-15 -26 -10 -14 -29 -29 -24 -17
-15 -18 -5 -8 -28 -28 -24 -18
-13 -19 0 -7 -25 -29 -27 -16
-17 -24 -1 -9 -27 -33 -30 -19
-18 -21 -3 -10 -25 -32 -30 -20
-17 -21 -2 -11 -26 -35 -32 -21
-9 -27 -3 -14 -26 -36 -31 -18
-12 -21 -5 -11 -26 -34 -30 -19
-9 -15 -7 -12 -29 -37 -32 -22
-5 -24 -4 -12 -32 -40 -34 -22
-5 -23 -2 -6 -26 -34 -29 -20
-6 -15 0 -2 -27 -34 -30 -22
-7 -19 5 2 -24 -32 -28 -18
-3 -23 5 2 -25 -34 -28 -17
2 -19 0 0 -26 -35 -31 -23
4 -23 -2 -4 -29 -39 -33 -23
0 -27 -3 -5 -27 -39 -30 -21
-4 -17 -3 0 -25 -34 -26 -18
6 -11 -1 2 -23 -33 -25 -19
3 -18 -1 -1 -27 -36 -28 -19
-2 -17 -1 0 -24 -33 -26 -20
-2 -16 2 3 -23 -32 -25 -22
-2 -19 1 1 -24 -34 -28 -22
-9 -16 6 10 -18 -30 -23 -16
-24 -19 7 15 -13 -25 -20 -14
-30 -29 3 8 -21 -33 -28 -18
-17 -31 3 9 -17 -32 -25 -14
-9 -21 2 12 -18 -31 -26 -15
-7 -23 0 11 -21 -34 -30 -19
-6 -27 1 12 -22 -36 -32 -18
-7 -20 3 18 -15 -30 -27 -15
-8 -19 8 26 -12 -27 -24 -16
-13 -27 9 25 -12 -31 -25 -16
-13 -26 12 31 -8 -26 -20 -12
-12 -19 13 36 -5 -23 -17 -14
-6 -21 13 33 -8 -27 -21 -15
1 -19 14 34 -4 -24 -21 -11
5 -8 14 39 -2 -21 -19 -10
3 -8 15 41 -1 -20 -19 -10
-4 -20 14 43 -2 -24 -20 -10
-8 -16 14 46 2 -21 -17 -11
-3 1 15 49 0 -23 -21 -16
5 -7 17 52 5 -24 -23 -13
-2 -11 15 52 4 -26 -26 -16
5 2 15 59 9 -23 -24 -15
4 -3 18 61 11 -22 -21 -13
9 -11 19 61 15 -20 -20 -9
14 -3 21 69 19 -13 -13 -6
0 -14 18 69 17 -15 -15 -9
0 -20 17 67 12 -19 -18 -11
-4 -17 18 74 18 -12 -13 -8
-5 -7 20 83 21 -9 -11 -9
-4 -9 25 87 27 -6 -8 -5
4 0 23 88 27 -5 -7 -5
7 4 25 92 32 -1 -3 -4
4 0 26 92 33 -1 -2 -2
3 -4 26 90 35 0 -2 1
5 5 26 92 38 5 2 3
9 11 25 91 38 5 0 2
8 2 29 94 41 6 0 6
10 9 30 98 47 12 6 8
16 14 27 97 43 10 4 4
20 11 27 95 43 8 2 5
17 15 30 98 46 13 6 9
13 19 31 100 50 18 11 11
12 13 31 96 50 17 12 13
17 11 29 91 51 18 14 16
13 17 28 92 51 21 18 17
12 23 27 89 50 20 17 15
14 19 28 90 49 20 18 18
12 25 32 95 53 27 24 21
12 35 29 93 48 22 18 14
14 22 29 89 47 21 15 13
17 22 29 88 48 23 16 15
19 26 28 88 50 24 19 16
18 24 25 80 47 22 17 16
14 23 23 78 49 22 20 20
16 25 21 78 46 23 22 19
17 24 22 77 47 23 23 19
21 25 24 78 48 25 25 22
17 34 30 86 54 34 34 27
12 40 31 89 54 36 35 25
9 28 27 81 49 30 27 20
4 23 28 81 51 33 29 24
2 26 28 81 52 34 31 23
3 18 24 71 46 27 23 18
12 21 21 69 48 25 19 19
17 31 21 71 48 27 21 20
13 28 21 69 48 25 20 20
9 19 19 65 47 24 17 19
1 18 20 68 51 28 20 21
3 27 24 71 50 31 23 21
15 26 24 68 51 29 21 21
10 22 22 63 48 28 22 21
12 34 22 62 50 30 25 20
13 27 23 57 47 28 24 20
16 26 18 51 46 25 23 20
20 33 16 48 43 25 25 19
16 29 18 49 45 28 27 20
19 24 16 43 42 23 21 19
19 25 17 43 43 24 22 18
11 29 17 42 40 24 22 15
8 20 17 38 40 21 19 15
6 18 14 33 39 19 16 14
3 25 13 35 39 19 17 11
3 21 15 34 38 17 16 13
5 14 12 29 37 14 14 12
5 18 10 29 36 16 15 12
11 20 9 26 32 13 15 10
10 7 9 21 29 10 11 9
3 4 8 21 30 10 11 7
-1 10 11 26 30 11 12 6
-3 4 14 26 30 10 9 6
-2 5 12 24 27 9 8 4
-1 12 13 26 29 11 12 4
4 10 11 22 24 7 7 3
6 6 12 21 26 5 6 6
1 11 13 23 24 4 3 5
-5 13 15 23 22 1 0 4
0 10 12 20 18 -5 -4 2
4 15 15 23 21 -1 2 4
3 21 15 23 17 -3 0 0
-6 3 11 18 13 -10 -8 -6
-3 -1 12 19 14 -9 -7 -5
0 4 13 21 17 -5 -2 -4
-2 0 10 18 12 -10 -6 -6
0 -2 9 16 12 -11 -4 -3
0 1 10 21 12 -7 -2 -3
-1 -1 8 19 10 -11 -6 -6
1 -6 11 16 9 -11 -6 -5
-3 3 14 19 14 -4 1 -1
-17 3 16 23 15 -3 2 -2
-22 1 17 24 16 -3 0 -3
-22 -1 17 25 18 -4 -4 -3
-15 8 17 24 19 -3 -7 -4
-16 6 15 21 16 -9 -11 -6
-12 -2 17 21 20 -8 -6 -1
0 7 15 22 19 -8 -4 -2
-5 10 13 21 16 -10 -6 -4
-12 0 17 23 16 -10 -5 -2
-11 1 21 27 23 -4 1 1
-5 8 19 25 18 -7 -4 -5
0 11 22 25 20 -7 -5 -2
5 10 24 29 24 -4 -2 -1
-4 7 21 28 25 -3 -1 -3
-17 0 18 22 18 -9 -6 -6
-16 -6 19 20 20 -7 -3 -2
-6 -2 15 19 18 -7 -5 -4
-6 1 16 18 18 -7 -5 -4
-5 -2 14 15 15 -10 -6 -5
-4 5 18 21 21 -1 2 0
-5 7 18 23 21 -1 1 -2
-6 1 20 25 23 -1 -1 -1
-9 -2 19 26 23 -2 -2 -1
-15 1 17 26 24 -1 0 -2
-13 0 15 21 21 -7 -4 -4
-9 -3 14 18 23 -5 -2 -2
-4 2 12 18 22 -4 -2 -3
-4 2 16 21 27 -1 1 2
-14 -3 16 17 24 -4 0 0
-15 4 15 19 27 -1 2 0
-5 16 12 20 24 -4 0 -4
-5 0 15 20 26 -4 1 -2
-12 -4 17 21 28 -1 3 0
-3 6 15 20 28 2 4 -1
-1 -2 14 15 25 -3 2 -2
-1 -5 14 14 27 -1 6 2
0 1 12 14 27 0 7 1
-4 2 12 13 28 0 6 2
-3 1 12 12 27 -2 4 2
-5 -2 12 14 29 2 8 2
-3 2 11 14 27 1 7 -1
-3 -2 12 12 27 -1 6 -1
4 5 7 8 24 -4 2 -6
12 11 10 14 28 0 4 -3
11 8 12 14 29 0 5 0
8 5 12 11 30 1 7 3
1 4 12 13 30 3 9 2
-14 -4 6 4 22 -5 1 -4
-12 -10 8 1 22 -5 2 -2
-17 -12 10 7 28 1 8 1
-25 -8 11 10 29 2 6 0
-19 -9 11 7 28 0 3 -1
-12 -13 6 2 23 -3 0 -3
-4 -4 7 4 27 -1 4 -3
-1 -3 8 2 25 -2 2 -2
-3 -7 11 2 28 -2 3 1
4 2 11 5 28 1 4 1
-1 5 11 5 27 0 3 0
-4 -2 12 2 25 -3 0 0
2 7 14 8 30 2 4 1
4 17 17 14 31 4 5 1
5 12 21 14 34 4 7 4
10 16 21 15 35 5 8 4
4 17 21 15 35 6 9 2
2 6 21 11 31 3 5 2
7 7 23 10 36 6 9 7
6 18 27 16 38 11 14 9
-6 18 25 14 34 7 12 5
-15 7 24 10 29 2 8 5
-15 10 24 11 33 6 14 6
-21 13 25 15 33 8 14 6
-18 9 24 14 33 6 12 7
-12 11 24 13 35 8 15 10
-9 19 21 13 38 11 19 10
2 22 15 5 33 6 14 9
7 22 11 -1 32 7 16 12
2 23 7 -1 25 9 18 11
2 21 7 1 21 10 18 11
4 19 1 -5 13 6 15 9
1 22 -2 -5 10 6 17 6
-2 18 -2 -2 7 6 16 5
4 15 -4 -6 5 3 12 5
11 12 -5 -7 5 3 14 6
10 19 -5 -5 5 4 17 5
10 14 -8 -12 1 -2 13 4
15 9 -10 -14 3 0 15 8
12 10 -13 -13 1 0 15 5
8 3 -16 -17 -3 -4 6 1
4 -4 -15 -19 -3 -4 3 3
-3 6 -12 -12 1 1 8 3
-5 15 -12 -11 -2 -2 5 -1
2 0 -8 -10 0 -1 6 0
12 -5 -10 -13 -2 -5 4 -2
10 3 -8 -9 0 -2 6 -3
-3 -10 -4 -9 -2 -4 5 -3
-8 -18 -4 -13 -3 -7 4 -2
-8 -10 -6 -14 -6 -8 4 -5
-12 -5 -5 -15 -6 -8 4 -6
-11 -13 -5 -19 -8 -11 1 -7
-10 -16 -1 -11 -3 -5 5 -5
-4 -10 -7 -15 -11 -14 -5 -16
-3 -17 -2 -14 -9 -12 -5 -14
-1 -22 -2 -14 -8 -11 -3 -13
-10 -20 -1 -10 -5 -7 0 -12
-15 -21 0 -12 -7 -10 -4 -13
-19 -27 0 -14 -6 -10 -3 -10
-22 -30 -2 -12 -6 -9 -4 -11
-13 -26 -2 -12 -6 -10 -4 -12
-9 -25 0 -12 -6 -10 -4 -11
-4 -12 3 -5 -1 -5 1 -8
-4 -5 5 -1 -1 -3 2 -10
-19 -21 2 -8 -5 -9 -4 -12
-14 -31 -2 -12 -9 -11 -5 -15
-13 -23 0 -9 -5 -6 1 -14
-15 -27 1 -12 -6 -9 0 -12
-7 -25 -3 -19 -6 -12 -2 -14
-14 -23 -6 -20 -8 -12 -4 -17
-11 -26 -4 -17 -7 -11 -3 -15
-8 -28 -4 -17 -8 -11 -4 -14
-13 -17 -2 -12 -4 -5 1 -12
-7 -7 -1 -12 -5 -8 -2 -15
-8 -19 1 -11 -5 -9 -4 -13
-25 -27 -1 -13 -5 -11 -7 -15
-27 -23 1 -7 -1 -9 -6 -16
-22 -32 7 -3 -2 -14 -9 -18
-12 -26 16 7 3 -13 -8 -15
-19 -19 27 24 9 -11 -7 -16
-20 -17 39 41 17 -6 -4 -11
-18 -5 48 54 25 -4 -3 -10
-14 6 59 76 40 11 10 -4
-9 12 70 90 54 26 22 2
-7 17 84 104 77 51 41 18
-3 31 98 119 109 83 65 34
10 44 107 139 138 114 84 41
15 47 119 159 179 150 106 53
20 58 130 184 242 206 141 77
34 86 128 199 310 280 189 105
49 110 120 208 390 367 248 140
77 127 90 188 441 426 284 166
112 148 35 151 456 454 303 177
111 152 -27 95 424 443 305 183
97 127 -84 4 326 370 269 168
87 92 -150 -125 194 259 209 132
69 65 -213 -275 55 144 146 97
46 33 -255 -401 -89 20 76 62
30 7 -273 -479 -197 -74 20 32
21 -7 -277 -521 -263 -129 -18 5
7 -32 -272 -545 -318 -172 -51 -20
-12 -64 -268 -552 -351 -203 -80 -41
-34 -74 -252 -516 -339 -206 -89 -51
-46 -77 -240 -475 -322 -201 -93 -57
-47 -82 -236 -443 -305 -200 -99 -61
-48 -81 -224 -404 -278 -186 -97 -62
-50 -70 -208 -359 -246 -167 -88 -58
-46 -66 -196 -330 -226 -161 -91 -60
-49 -66 -176 -294 -194 -143 -80 -52
-47 -51 -158 -259 -172 -128 -75 -53
-38 -47 -135 -223 -149 -114 -69 -48
-27 -43 -110 -185 -123 -98 -59 -40
-28 -33 -87 -148 -97 -79 -45 -34
-33 -27 -69 -121 -84 -70 -39 -33
-36 -34 -58 -107 -77 -66 -40 -34
-27 -24 -48 -96 -67 -60 -37 -31
-21 -14 -37 -79 -55 -49 -29 -26
-28 -26 -29 -70 -50 -48 -30 -25
-25 -30 -24 -59 -40 -41 -23 -20
-22 -25 -21 -52 -38 -39 -22 -23
-21 -24 -18 -48 -38 -38 -24 -24
-16 -38 -12 -41 -34 -36 -24 -23
-19 -36 -6 -30 -26 -31 -19 -22
-23 -31 -1 -22 -23 -29 -20 -24
-21 -31 3 -18 -19 -28 -18 -22
-20 -32 3 -19 -16 -26 -17 -21
-19 -26 7 -10 -10 -19 -10 -17
-10 -26 7 -11 -12 -23 -13 -17
-4 -27 6 -16 -13 -23 -13 -15
-1 -22 4 -16 -14 -22 -11 -18
-15 -28 0 -18 -21 -29 -17 -24
-20 -42 1 -17 -22 -31 -18 -25
-21 -33 8 -9 -13 -21 -9 -20
-20 -32 9 -9 -17 -24 -15 -26
-16 -38 9 -8 -18 -27 -19 -27
-18 -38 10 -6 -14 -25 -19 -25
-18 -30 9 -5 -15 -24 -21 -26
-16 -34 6 -8 -18 -31 -26 -27
-18 -38 7 -9 -14 -28 -22 -21
-17 -34 9 -4 -12 -26 -18 -20
-19 -42 4 -7 -19 -32 -23 -26
-16 -49 5 -9 -21 -36 -27 -26
-14 -35 10 -2 -15 -28 -19 -23
-12 -25 13 2 -17 -28 -20 -25
-1 -27 13 2 -17 -29 -20 -23
-1 -25 14 4 -12 -25 -17 -22
-10 -22 14 8 -11 -21 -11 -20
-17 -35 13 4 -14 -27 -15 -20
-18 -36 11 3 -12 -25 -13 -17
-24 -32 14 8 -9 -21 -11 -16
-12 -29 14 8 -12 -25 -17 -21
-11 -30 15 7 -12 -31 -25 -23
-14 -25 19 15 -5 -24 -20 -20
-19 -32 18 18 -7 -26 -23 -24
-29 -45 14 12 -11 -32 -27 -27
-20 -41 16 16 -6 -29 -25 -23
-17 -29 17 20 -4 -24 -20 -21
-16 -29 15 16 -9 -30 -24 -23
-12 -33 16 17 -5 -26 -20 -19
-16 -33 17 20 -3 -24 -17 -19
-17 -34 19 20 -5 -25 -18 -19
-17 -39 19 19 -5 -27 -20 -20
-19 -34 19 26 0 -21 -16 -20
-27 -29 24 33 3 -19 -14 -19
-29 -27 26 33 5 -18 -13 -16
-23 -21 26 37 8 -15 -10 -15
-13 -18 24 42 9 -11 -7 -15
-22 -32 22 38 6 -16 -11 -16
-15 -24 22 40 9 -15 -10 -13
-6 -17 21 42 9 -15 -10 -17
-9 -24 18 43 4 -20 -17 -21
-10 -33 20 44 4 -22 -19 -21
-11 -26 27 56 13 -12 -11 -15
-23 -27 28 61 13 -11 -12 -18
-20 -30 28 62 14 -12 -13 -16
-12 -22 27 62 15 -12 -13 -18
-10 -22 28 69 18 -7 -9 -16
-6 -19 27 66 16 -10 -15 -18
-9 -21 30 70 23 -4 -8 -12
-7 -14 33 74 26 0 -3 -10
-2 -12 33 77 27 1 -3 -10
-2 -18 33 77 26 -3 -7 -10
0 -11 37 86 34 5 0 -7
-7 -9 40 92 35 6 1 -8
0 -11 40 92 36 6 0 -7
-3 -13 39 90 36 7 -2 -9
-1 -4 39 94 40 10 0 -6
4 -3 39 92 39 9 0 -5
6 -6 38 93 43 11 2 -1
-1 1 39 95 44 15 7 1
0 2 40 96 45 17 8 2
6 -5 41 96 46 17 6 4
8 7 45 101 52 25 14 6
2 9 46 103 51 26 16 5
1 3 47 103 53 27 16 7
6 11 45 99 53 28 17 7
8 18 46 101 55 33 23 11
4 14 46 99 54 31 23 13
8 10 41 94 54 31 21 12
2 10 37 93 50 30 20 9
2 15 38 93 49 30 18 9
8 4 38 91 48 27 14 9
10 7 38 93 50 30 17 9
6 16 40 95 49 32 20 10
5 12 41 93 50 33 22 13
2 14 40 90 49 35 25 14
0 21 37 91 49 37 29 13
5 11 37 89 49 35 29 16
5 11 38 88 54 39 33 21
-1 16 38 88 54 42 36 22
-2 19 37 88 52 40 29 20
3 16 39 86 53 37 24 21
11 30 40 87 55 42 27 20
20 35 39 87 50 38 23 17
14 19 36 85 47 33 19 13
2 11 34 85 47 34 19 13
0 22 34 86 47 37 24 13
6 12 33 81 45 34 23 14
5 10 35 78 49 38 28 19
2 16 34 75 48 40 30 19
0 10 33 71 45 40 31 19
8 7 31 63 43 35 27 16
7 16 34 69 49 42 32 19
8 21 33 69 45 39 24 15
7 14 32 66 45 38 22 14
8 14 30 63 45 39 23 14
7 18 29 61 42 42 27 13
10 18 28 55 39 38 25 13
11 19 26 52 42 39 27 15
6 21 26 52 41 39 27 15
3 15 23 47 35 33 21 10
12 13 21 41 31 27 15 9
21 23 26 47 37 34 22 12
17 22 22 42 31 28 16 5
10 16 23 38 30 26 14 6
0 6 20 35 28 26 14 5
-4 11 17 36 26 25 15 2
-3 5 20 33 25 22 15 4
8 3 19 31 27 24 16 6
3 9 17 30 24 22 14 4
1 5 19 30 21 21 14 5
5 1 17 25 17 14 7 1
-1 8 17 28 18 17 9 0
-7 12 20 31 17 17 8 0
-10 6 20 27 16 14 6 0
-1 1 19 26 16 16 7 2
0 9 20 30 17 20 12 3
-3 1 19 25 12 14 8 2
-3 -1 16 23 12 14 9 2
-2 5 15 24 11 13 8 -1
-3 4 16 20 8 9 3 -1
-1 -3 18 16 7 6 -2 -1
-1 1 18 21 9 8 1 -3
-8 -7 15 19 0 0 -7 -10
-5 -10 14 14 -3 -5 -12 -13
-5 -12 11 10 -5 -6 -14 -15
-4 -4 14 17 0 0 -7 -10
-5 -7 17 19 -1 -3 -8 -9
2 -1 13 15 -1 -3 -7 -8
1 2 17 20 2 1 -2 -6
-13 -4 20 20 2 2 0 -4
-20 -9 22 19 4 2 -1 -3
-16 2 22 23 7 7 2 -3
-12 5 22 23 5 3 -1 -6
-5 1 19 17 2 -2 -7 -8
-10 -5 19 18 4 -1 -8 -6
-11 4 18 17 1 -2 -8 -9
-8 -3 17 13 -3 -8 -12 -9
-7 -7 19 14 1 -4 -7 -5
-8 6 18 15 0 -4 -6 -7
-4 8 18 16 -3 -6 -7 -8
-4 -4 19 14 -5 -7 -9 -8
-11 -2 24 21 3 2 -1 -4
-7 3 24 24 1 1 -6 -7
-2 0 22 21 1 0 -9 -6
-6 1 24 23 4 2 -6 -3
-8 8 27 28 7 5 -3 0
-15 0 24 24 2 1 -8 -2
-14 -1 20 21 2 1 -7 -2
-11 4 14 16 -3 -3 -11 -9
-13 -5 16 19 -3 -1 -9 -6
-12 -9 18 19 0 -1 -8 -3
-11 -2 18 22 2 4 -3 -3
0 6 16 21 -3 2 -5 -8
1 3 17 21 -3 0 -4 -6
0 -2 17 19 -1 2 -3 -4
-3 -2 13 17 -3 1 -3 -8
-3 -8 12 13 -6 -4 -9 -8
2 -3 13 15 -1 1 -5 -3
2 1 13 16 -1 3 -2 -2
-6 -1 14 16 0 2 -3 -1
-13 -6 15 13 0 2 -6 0
-7 -2 16 16 3 5 -2 -1
-1 -1 13 15 -3 1 -7 -7
4 -3 13 14 -2 0 -6 -3
-3 -2 15 14 1 4 -3 0
-12 15 17 20 7 11 4 2
-13 0 18 17 4 8 1 3
-15 -4 13 10 3 4 -2 1
-9 1 11 9 1 5 -1 -1
7 4 10 7 -1 1 -3 -2
9 -4 9 4 -4 -2 -7 -3
0 4 11 9 1 5 0 -1
-7 2 10 9 -3 2 -4 -5
-7 -5 13 10 -1 3 -2 -1
-1 -6 11 7 -3 4 -1 -2
2 -2 8 9 -2 6 0 -3
2 -2 9 6 -5 3 -4 -2
-1 2 4 0 -5 0 -5 -3
-4 1 7 4 -2 5 0 -1
-6 -1 9 5 -2 5 1 0
-3 -9 9 3 -3 2 -4 0
5 -2 9 6 -2 4 -2 -1
3 -2 8 5 -8 2 -6 -5
1 -7 10 4 -7 0 -5 -3
2 -4 12 5 -3 3 -2 0
3 2 11 8 -2 6 3 1
2 1 11 4 -6 2 0 1
1 -1 13 3 -3 5 2 4
-4 3 13 5 -3 7 3 3
-8 5 14 6 -3 6 4 3
-8 -1 18 4 -2 6 3 5
-5 12 21 10 4 11 9 8
0 13 21 10 0 9 3 3
-4 8 22 10 1 8 0 5
-7 10 23 12 5 9 0 8
-3 17 19 11 1 7 0 3
0 8 20 8 -2 3 -3 4
1 12 19 6 -1 4 -1 5
-8 16 19 9 -2 6 2 4
-3 20 20 10 -3 6 1 5
5 16 24 10 0 8 3 8
7 27 25 13 3 13 9 9
7 29 24 11 0 11 9 8
6 25 22 8 -1 10 9 9
8 26 17 5 -1 10 10 10
7 31 11 2 -2 10 9 8
2 22 8 -1 -2 9 6 11
0 23 9 -1 3 14 7 14
9 28 4 -4 -1 10 2 11
2 23 2 -3 -1 10 3 12
4 20 -3 -8 -6 5 0 9
12 25 -3 -4 -5 9 2 8
9 24 0 0 -3 8 5 10
11 21 -1 -2 -3 8 5 13
10 18 -5 -7 -5 7 4 10
8 22 -5 -7 -4 8 5 10
21 21 -12 -18 -12 -1 -3 5
24 16 -13 -21 -9 2 0 9
21 17 -17 -24 -12 -1 -3 6
19 16 -20 -23 -14 -3 -5 4
14 1 -20 -24 -15 -7 -9 1
15 9 -19 -19 -11 -1 -4 1
15 11 -14 -15 -11 -3 -6 2
13 7 -10 -14 -9 -1 -5 4
7 7 -10 -16 -10 -1 -5 3
3 6 -9 -16 -13 -3 -5 1
4 4 -7 -19 -15 -7 -8 0
0 -5 -7 -19 -13 -5 -6 2
-7 -9 -10 -21 -17 -8 -11 -3
-16 -4 -7 -18 -16 -9 -13 -4
-14 -7 -9 -22 -18 -13 -17 -6
-7 -4 -7 -16 -16 -8 -12 -5
-2 -2 -6 -17 -18 -11 -16 -9
-2 -7 -6 -18 -18 -13 -18 -10
-4 -7 -11 -22 -20 -15 -21 -13
-8 -5 -14 -22 -24 -15 -21 -15
-9 -15 -13 -25 -25 -19 -24 -13
-3 -14 -12 -24 -22 -14 -20 -8
-3 -11 -10 -22 -20 -11 -17 -7
-5 -11 -8 -19 -19 -10 -15 -6
-2 -8 -6 -20 -17 -11 -16 -5
-3 -4 -5 -16 -15 -6 -12 -5
-10 -11 -8 -18 -21 -12 -19 -12
-11 -13 -8 -19 -21 -12 -20 -10
-7 -9 -9 -22 -20 -10 -19 -10
-12 -6 -8 -18 -18 -8 -17 -9
-10 -19 -8 -22 -21 -14 -23 -8
-6 -19 -10 -24 -20 -13 -23 -7
-10 -17 -9 -23 -19 -12 -22 -7
-8 -14 -7 -22 -19 -11 -20 -7
-7 -11 -6 -23 -19 -11 -21 -4
-4 -3 -7 -21 -19 -10 -19 -7
-3 -8 -6 -20 -21 -12 -20 -10
-9 -21 -7 -23 -22 -13 -22 -10
-10 -20 -6 -19 -19 -11 -20 -7
-4 -9 0 -9 -16 -9 -18 -9
-1 -16 2 -8 -22 -20 -29 -16
-10 -19 13 6 -13 -16 -25 -13
-16 -8 26 22 -2 -10 -18 -9
-20 -7 37 44 9 -4 -14 -5
-16 2 51 65 27 9 -5 5
-8 16 63 80 44 29 10 13
-6 26 74 92 61 48 23 20
4 45 87 105 89 77 42 36
8 49 99 123 120 106 59 47
13 61 111 151 162 145 84 57
29 73 124 175 219 198 117 80
43 89 123 188 286 268 164 109
66 122 115 199 365 352 221 142
88 146 88 182 415 417 266 168
100 159 40 145 433 447 291 186
103 170 -18 94 412 446 301 199
102 149 -80 0 310 368 260 175
98 109 -150 -132 172 254 192 139
77 79 -212 -283 36 140 128 106
53 51 -258 -407 -105 18 60 67
36 25 -275 -486 -212 -76 1 38
20 1 -275 -526 -269 -124 -31 17
2 -18 -270 -548 -321 -166 -62 -7
-7 -37 -266 -554 -353 -196 -89 -29
-27 -62 -254 -529 -350 -208 -105 -43
-35 -68 -248 -491 -337 -204 -110 -54
-40 -71 -245 -458 -324 -202 -116 -61
-48 -77 -231 -421 -298 -191 -114 -58
-38 -63 -216 -380 -266 -172 -107 -54
-33 -50 -203 -342 -242 -157 -101 -54
-34 -58 -190 -314 -220 -149 -101 -53
-32 -49 -168 -278 -190 -130 -90 -45
-32 -34 -145 -237 -166 -113 -78 -40
-32 -34 -119 -197 -142 -96 -69 -33
-32 -32 -99 -169 -122 -86 -64 -29
-31 -21 -80 -137 -101 -72 -54 -24
-34 -22 -66 -117 -94 -67 -53 -25
-23 -21 -57 -107 -84 -61 -50 -22
-15 -16 -49 -99 -75 -54 -45 -18
-14 -11 -42 -85 -67 -46 -40 -17
-12 -16 -35 -79 -62 -44 -41 -15
-13 -24 -33 -73 -58 -40 -38 -15
-13 -18 -27 -61 -55 -37 -36 -15
-20 -23 -21 -53 -52 -36 -37 -16
-17 -31 -19 -52 -50 -37 -41 -19
-14 -22 -15 -40 -44 -29 -35 -18
-16 -26 -9 -35 -43 -31 -36 -19
-12 -28 -8 -33 -38 -27 -34 -16
-7 -26 -10 -35 -40 -28 -35 -18
-3 -19 -13 -33 -41 -30 -35 -20
-8 -26 -10 -34 -39 -30 -35 -17
-7 -25 -10 -36 -36 -29 -32 -15
-9 -19 -6 -29 -35 -25 -28 -13
-16 -21 -1 -24 -32 -23 -26 -12
-17 -30 -1 -27 -30 -25 -27 -13
-16 -25 0 -23 -28 -20 -24 -13
-20 -26 0 -21 -31 -23 -27 -17
-18 -26 0 -23 -29 -23 -27 -17
-13 -23 0 -25 -29 -23 -27 -16
-10 -16 -1 -23 -30 -24 -28 -15
-4 -18 -5 -30 -35 -33 -40 -20
-8 -31 -4 -25 -32 -31 -37 -16
-12 -27 -3 -17 -32 -33 -37 -17
-7 -22 -1 -11 -30 -32 -37 -16
-5 -27 -1 -13 -29 -35 -39 -17
-6 -20 1 -5 -28 -31 -34 -17
-10 -23 4 2 -26 -29 -32 -18
-8 -25 3 2 -26 -31 -33 -19
-14 -25 3 2 -25 -30 -29 -17
-11 -19 4 6 -22 -24 -23 -14
-13 -23 3 4 -24 -27 -27 -14
-9 -19 2 1 -22 -28 -28 -12
-10 -14 -1 0 -26 -31 -35 -17
-4 -21 2 6 -25 -32 -37 -16
5 -21 3 8 -25 -35 -39 -17
-1 -16 1 14 -25 -34 -39 -20
-3 -16 2 16 -28 -37 -41 -23
-1 -14 1 14 -28 -39 -43 -23
-1 -18 6 18 -21 -32 -36 -17
-9 -16 7 23 -20 -28 -31 -15
-8 -26 3 17 -23 -34 -35 -16
1 -21 2 18 -20 -32 -32 -13
0 -13 3 26 -20 -33 -31 -15
-8 -20 4 31 -20 -35 -32 -17
-7 -27 8 33 -18 -34 -32 -16
-6 -19 9 38 -16 -30 -30 -16
-11 -20 14 44 -14 -28 -31 -15
-6 -19 15 45 -11 -26 -30 -13
-4 -17 12 46 -12 -27 -30 -14
0 -8 11 52 -11 -24 -28 -14
-2 -14 9 50 -14 -28 -31 -15
2 -16 10 53 -10 -25 -27 -12
-3 -14 11 59 -9 -23 -27 -14
-9 -23 11 61 -10 -25 -29 -15
-9 -26 15 64 -7 -24 -29 -13
-14 -12 20 76 0 -16 -23 -9
-16 -14 21 80 -2 -17 -26 -12
-4 -15 18 78 -2 -17 -26 -12
-1 -12 16 81 1 -16 -25 -12
-4 -8 16 87 2 -12 -22 -11
-10 -16 18 88 5 -13 -21 -8
-9 -13 19 91 9 -7 -15 -4
9 -4 17 95 8 -9 -17 -7
11 3 18 100 9 -11 -18 -8
7 -4 22 103 13 -8 -17 -6
6 3 26 110 19 -1 -10 -3
6 2 26 112 17 -5 -14 -6
8 -1 27 112 21 -2 -12 -2
-3 -4 25 115 23 0 -9 0
-8 0 25 118 24 4 -5 1
2 -1 26 114 25 2 -5 4
4 2 26 116 31 9 1 8
5 8 27 121 32 11 2 7
14 11 26 121 30 11 1 5
13 6 31 120 34 14 3 8
15 16 32 126 39 19 9 9
15 17 33 127 36 18 7 8
7 15 34 124 41 22 11 13
9 15 34 122 43 24 14 14
11 21 32 123 41 26 17 14
8 10 30 116 38 21 12 14
13 15 28 113 40 23 13 16
9 21 29 114 39 22 14 15
4 19 32 117 41 24 16 17
3 17 33 115 44 25 16 18
4 24 31 118 45 28 21 16
7 23 30 113 40 24 16 13
13 18 28 111 41 24 15 15
14 22 24 108 40 22 13 14
17 30 23 109 39 25 17 14
17 20 25 106 39 23 17 17
17 22 27 106 45 27 23 22
13 26 31 109 47 31 28 24
2 21 28 105 42 29 25 20
-1 13 29 103 43 28 23 21
9 24 29 108 46 33 26 20
10 26 30 106 41 29 20 17
17 21 29 104 44 29 17 19
20 22 27 101 43 29 18 20
17 26 26 101 43 32 22 21
19 22 22 92 38 25 18 18
28 21 16 87 37 23 16 16
17 21 21 92 38 26 20 17
8 14 21 89 38 26 18 16
14 9 22 83 39 25 18 16
19 21 22 84 42 31 24 16
15 27 28 86 43 34 28 19
17 28 29 85 46 37 31 22
14 28 29 87 49 40 33 26
7 25 26 83 44 37 28 22
8 10 21 70 36 27 16 17
11 10 21 68 38 29 17 18
9 16 19 67 35 28 15 14
15 11 20 64 32 25 14 12
15 4 18 58 30 21 11 12
13 11 20 61 31 25 15 12
16 16 18 59 26 21 10 7
11 12 17 56 25 18 9 8
9 14 18 55 26 21 13 12
12 20 19 57 26 23 16 12
6 7 17 48 22 19 14 12
3 6 19 51 27 23 20 16
11 18 17 49 25 22 19 14
4 11 15 44 19 16 12 8
2 3 14 39 16 10 5 6
5 15 12 41 14 10 3 1
6 12 13 41 12 7 1 0
4 7 17 41 14 9 5 3
6 6 16 38 14 9 5 4
8 15 14 36 11 5 1 0
1 2 9 27 2 -4 -9 -4
0 -3 10 29 7 -1 -3 0
-13 2 12 33 6 1 -1 -1
-18 -5 18 37 9 2 0 1
-14 -11 16 32 6 -1 -4 -1
-14 -8 15 35 6 -1 -3 -5
-7 -9 12 32 0 -7 -9 -9
0 -11 11 29 0 -8 -9 -9
0 -7 10 27 0 -8 -7 -7
-1 3 12 31 1 -6 -4 -7
-1 -2 16 30 3 -6 -4 -3
0 6 17 29 5 -5 -4 -1
4 13 16 29 3 -6 -7 -4
2 8 16 28 0 -9 -10 -8
-6 -7 17 25 0 -10 -11 -7
-8 -2 20 32 3 -4 -6 -7
-9 2 19 32 1 -7 -10 -10
-5 -5 19 30 3 -7 -10 -8
3 -4 15 25 0 -10 -11 -10
9 -2 10 23 -5 -15 -15 -15
6 -4 8 17 -10 -21 -20 -16
-2 -8 12 20 -2 -12 -12 -9
-12 -5 20 31 4 -4 -5 -5
-8 -3 24 34 5 -4 -5 -5
3 -8 18 26 0 -9 -11 -9
-1 -2 20 31 2 -5 -7 -10
-7 -2 22 36 2 -5 -8 -9
-5 -1 22 36 6 -3 -7 -5
0 4 26 39 10 1 -4 1
3 12 26 41 9 1 -3 0
-2 2 19 33 3 -8 -11 -4
-6 -9 16 29 4 -6 -10 -5
-9 -5 18 32 5 -3 -7 -3
-8 -6 20 33 6 -3 -7 -3
-3 -7 20 31 7 -2 -7 -2
-2 3 18 34 7 -1 -4 -5
-6 -1 16 30 2 -5 -9 -9
-3 4 16 26 3 -4 -7 -7
3 0 15 27 5 -2 -4 -4
2 2 12 28 3 -1 -3 -5
3 -5 12 20 3 -3 -5 -4
0 5 14 20 8 2 1 1
-5 5 13 27 8 3 1 0
-11 -7 16 27 8 2 -1 -2
-6 -12 14 22 7 2 -2 -2
-9 0 17 27 10 8 3 -1
-9 2 18 28 9 5 0 -2
-2 2 17 25 10 4 -2 -3
4 1 15 23 10 4 -1 -1
1 7 15 26 12 8 1 0
-2 -3 14 21 9 3 -5 -1
-4 -6 10 17 9 2 -6 -3
-1 -1 8 17 4 0 -8 -7
-10 -2 11 18 5 0 -8 -5
-11 -13 12 14 5 1 -7 -4
-1 -3 8 14 4 2 -5 -8
-5 -5 9 14 2 0 -7 -9
-12 -7 13 15 7 5 -1 -3
-5 -6 12 15 8 7 2 -2
-5 -5 9 14 5 6 3 -4
10 -4 8 10 3 2 -1 -5
17 3 7 9 5 3 -1 -5
11 2 9 12 6 3 -4 -6
3 0 12 14 8 6 -2 -4
-1 -8 13 11 9 4 -4 -4
6 2 10 13 8 3 -6 -6
10 3 8 11 3 -2 -12 -9
5 -5 9 9 6 0 -8 -6
4 2 11 10 7 5 -3 -4
4 8 8 10 6 5 -1 -5
8 -2 11 7 5 1 -6 -4
9 5 12 8 8 4 -3 -1
7 9 13 12 6 4 -3 -2
3 9 17 14 9 5 -3 0
-2 6 21 15 12 6 -3 2
-8 12 21 20 13 9 0 1
2 12 23 21 12 8 -2 0
8 15 27 22 20 11 3 4
7 16 25 21 18 11 3 4
5 17 21 20 14 9 1 0
2 7 22 10 10 4 -3 -1
1 12 24 8 15 10 4 4
-9 10 23 9 13 11 5 3
-2 13 22 12 13 11 5 2
1 8 22 9 12 9 4 2
2 14 23 12 14 14 10 2
-8 14 24 11 11 11 5 2
-6 16 22 9 13 11 2 3
-1 19 16 7 14 10 3 4
3 28 13 7 14 12 7 5
7 19 10 2 10 8 4 5
11 19 10 5 17 13 10 9
14 23 8 4 15 12 8 8
18 23 4 -3 9 6 2 3
21 19 3 -8 9 6 3 5
20 24 1 -5 11 11 8 4
16 17 -3 -9 4 4 3 -1
16 7 -5 -13 5 3 2 -1
18 10 -9 -14 4 2 1 -1
12 13 -9 -11 5 4 4 1
16 3 -12 -19 1 0 0 1
27 3 -17 -22 0 -1 -2 -1
27 7 -16 -20 -2 -1 -3 -3
21 6 -12 -17 -1 -2 -3 -5
14 -1 -10 -17 -1 -1 -4 -4
8 4 -8 -10 4 3 2 -5
10 2 -6 -11 1 0 -2 -7
6 0 -6 -15 0 -4 -5 -10
-3 -6 -2 -13 0 -3 -5 -9
-3 -3 -3 -12 -2 -6 -6 -11
8 -4 -3 -17 -4 -9 -11 -10
5 -6 -2 -15 0 -5 -7 -8
-12 -16 -6 -17 -8 -11 -13 -16
-10 -19 -5 -18 -11 -16 -18 -19
-8 -27 -3 -21 -9 -16 -18 -18
-6 -17 -1 -18 -6 -9 -14 -17
-4 -17 1 -17 -9 -11 -16 -17
-8 -21 0 -18 -7 -11 -14 -16
-12 -23 0 -20 -6 -10 -13 -16
-18 -14 1 -17 -5 -6 -8 -15
-12 -23 -3 -25 -9 -12 -14 -19
-3 -19 -4 -24 -6 -8 -10 -16
-5 -13 -5 -23 -9 -10 -10 -18
3 -19 -4 -23 -9 -12 -13 -19
3 -28 -4 -25 -9 -14 -16 -19
-1 -21 -2 -20 -6 -10 -11 -19
4 -16 -1 -22 -10 -13 -14 -21
-6 -24 -1 -22 -8 -12 -16 -20
-2 -22 -1 -17 -6 -10 -15 -18
4 -10 -2 -13 -8 -11 -15 -21
1 -12 2 -12 -6 -10 -13 -15
3 -14 2 -11 -1 -6 -11 -13
8 -11 1 -10 -3 -6 -12 -15
6 -10 4 -10 -2 -6 -11 -14
11 -4 10 -7 4 -2 -8 -8
9 3 7 -5 2 -4 -9 -12
-7 -16 2 -10 -7 -13 -16 -19
-17 -33 2 -10 -7 -16 -18 -20
-22 -31 7 -2 -5 -15 -17 -20
-10 -18 18 15 0 -14 -16 -19
-3 -18 26 23 3 -16 -19 -20
-7 -11 37 40 18 -6 -11 -14
-13 -2 49 60 29 0 -5 -11
-7 -2 59 75 42 11 1 -7
-4 2 70 86 58 27 9 2
1 26 84 108 86 59 33 17
11 38 98 123 112 84 52 30
14 40 109 142 144 114 71 42
30 56 122 168 192 158 99 56
51 81 126 190 246 213 133 73
68 87 120 197 310 280 176 100
83 111 108 201 385 361 233 135
103 141 80 184 426 418 275 159
110 154 34 150 436 441 295 175
110 137 -27 79 388 415 290 179
104 120 -84 -18 278 328 245 152
86 83 -152 -160 138 210 174 114
65 53 -212 -314 -1 91 105 81
42 32 -248 -421 -131 -23 40 47
16 13 -261 -482 -219 -97 -6 20
6 -11 -260 -517 -276 -147 -42 -3
-1 -37 -253 -534 -316 -181 -68 -23
-1 -47 -248 -528 -339 -207 -97 -47
-13 -60 -234 -491 -328 -209 -108 -56
-25 -76 -229 -460 -314 -209 -114 -64
-35 -78 -230 -427 -299 -205 -115 -71
-42 -77 -221 -392 -280 -197 -116 -72
-38 -75 -209 -356 -250 -181 -109 -68
-37 -72 -196 -320 -223 -167 -102 -65
-41 -62 -179 -286 -199 -149 -93 -64
-43 -63 -160 -255 -176 -136 -86 -58
-44 -54 -135 -217 -146 -114 -70 -45
-47 -43 -110 -178 -122 -98 -61 -40
-41 -34 -89 -145 -102 -84 -55 -36
-33 -29 -71 -120 -84 -73 -47 -30
-21 -12 -58 -98 -71 -61 -40 -29
-10 -10 -52 -92 -70 -63 -45 -32
-11 -19 -42 -78 -60 -57 -38 -26
-12 -19 -36 -66 -54 -52 -34 -24
-14 -21 -31 -55 -50 -48 -33 -26
-11 -30 -24 -50 -46 -48 -33 -25
-7 -23 -19 -43 -38 -41 -28 -21
-9 -16 -13 -36 -35 -38 -28 -24
-8 -24 -6 -28 -31 -34 -27 -23
-10 -34 -4 -24 -30 -34 -28 -24
-10 -28 -4 -17 -27 -30 -23 -26
1 -26 -3 -17 -30 -32 -26 -27
5 -25 -1 -17 -26 -30 -23 -23
-4 -27 -2 -15 -25 -27 -19 -21
-9 -23 0 -11 -24 -26 -22 -21
-5 -31 -1 -17 -27 -33 -31 -22
-1 -29 -1 -15 -25 -33 -27 -21
-2 -21 1 -13 -25 -32 -27 -23
7 -10 2 -14 -25 -32 -28 -24
26 -11 5 -12 -23 -31 -27 -21
6 -15 5 -6 -22 -27 -24 -23
-26 -41 1 -12 -30 -33 -29 -28
-22 -37 -1 -13 -29 -35 -29 -25
-16 -25 -1 -10 -28 -33 -25 -24
-14 -12 2 -3 -24 -29 -23 -21
-6 -22 4 -5 -25 -33 -28 -19
3 -21 6 -3 -23 -32 -25 -19
4 -12 5 -3 -24 -34 -28 -22
5 -15 7 -1 -23 -34 -29 -23
4 -27 6 -2 -23 -36 -31 -25
-8 -28 2 -2 -25 -36 -34 -31
-15 -29 5 -1 -24 -36 -35 -30
-8 -29 6 1 -19 -33 -32 -26
0 -21 5 2 -18 -31 -27 -24
4 -17 4 4 -19 -30 -26 -24
-4 -32 3 -2 -21 -33 -30 -23
-6 -32 5 4 -16 -29 -24 -22
-1 -29 4 5 -18 -33 -29 -27
-6 -27 9 8 -16 -32 -30 -27
-5 -31 13 9 -13 -31 -28 -24
-6 -21 14 13 -10 -27 -24 -24
-7 -19 15 14 -12 -29 -27 -24
4 -22 14 15 -11 -27 -24 -21
4 -18 10 16 -10 -26 -22 -20
-6 -20 11 21 -8 -23 -18 -19
-2 -31 9 16 -15 -30 -24 -21
-1 -27 9 19 -13 -30 -23 -21
3 -21 8 23 -13 -31 -26 -25
3 -19 10 24 -13 -34 -30 -27
-4 -26 14 28 -10 -32 -29 -24
-3 -16 15 34 -6 -27 -25 -24
1 -12 15 33 -10 -29 -29 -26
6 -11 17 39 -5 -26 -25 -20
3 -14 16 42 -3 -23 -22 -19
3 -9 16 45 -3 -22 -21 -19
7 -13 15 42 -6 -29 -26 -20
3 -16 18 48 0 -24 -20 -17
1 -10 21 55 3 -21 -20 -18
0 -13 26 61 9 -17 -17 -16
3 -16 24 59 7 -21 -19 -17
7 -9 26 68 13 -15 -13 -16
6 -16 25 69 11 -17 -16 -17
6 -16 25 70 14 -16 -14 -14
7 -8 23 74 17 -13 -9 -12
14 -3 25 79 19 -12 -6 -12
22 -4 26 77 20 -14 -8 -9
15 -4 28 83 25 -8 -5 -6
13 -2 26 84 22 -11 -11 -11
15 3 30 89 25 -10 -13 -11
14 -1 34 95 31 -3 -7 -4
3 1 36 101 35 3 0 -4
5 2 34 100 32 1 -2 -7
13 0 32 97 31 0 -2 -5
15 5 35 104 38 8 7 1
19 20 38 108 42 12 12 3
11 6 38 104 43 12 11 7
12 5 39 107 45 15 13 7
15 9 37 107 43 13 9 3
9 2 38 104 44 12 5 3
14 4 39 102 46 14 4 5
12 13 41 110 50 21 11 6
18 16 42 109 48 21 11 8
21 15 41 108 48 22 14 11
21 16 35 106 45 20 15 10
18 16 35 107 46 22 18 10
16 8 31 98 40 17 13 9
12 15 34 101 45 25 20 15
7 22 43 108 51 31 27 21
11 19 41 107 50 29 24 19
23 23 43 106 49 28 23 21
23 37 42 108 51 30 26 19
21 28 36 99 43 22 16 12
27 27 37 98 45 23 18 14
26 25 37 100 47 25 23 16
20 27 37 100 46 26 25 15
17 19 35 92 42 21 21 15
18 22 38 96 47 28 27 21
27 29 39 99 48 31 28 21
29 24 39 98 45 30 26 19
17 11 38 95 44 28 25 19
10 18 35 95 44 31 26 17
5 16 32 89 38 23 17 11
15 18 35 91 41 26 22 18
21 26 33 90 43 29 26 20
19 28 34 92 44 33 33 22
15 18 31 83 42 29 29 23
25 24 27 81 41 30 28 22
29 27 25 78 39 27 25 18
27 29 26 76 38 26 22 15
26 22 30 78 41 28 23 19
27 31 33 84 45 35 27 20
24 26 33 80 41 33 23 18
17 22 31 73 38 31 24 17
16 27 28 70 36 30 23 17
18 25 25 68 34 30 23 15
15 10 24 62 30 24 19 15
16 16 25 64 34 28 21 16
12 19 27 65 34 28 19 15
8 21 25 57 29 23 16 10
16 19 23 51 25 20 15 9
14 21 27 57 30 27 21 13
14 20 29 54 28 26 21 14
26 25 29 50 26 25 21 16
33 31 24 48 23 24 19 13
29 24 17 43 17 18 13 8
22 10 13 34 11 10 7 7
7 -2 9 30 8 6 4 3
4 2 15 35 11 10 7 5
-6 -2 18 39 12 11 7 6
3 -4 17 35 9 9 5 4
6 11 20 41 12 13 9 4
12 13 19 39 7 10 6 3
12 16 20 39 10 12 9 8
8 16 22 41 10 12 12 11
14 25 22 39 8 9 9 9
-2 0 19 33 4 1 3 7
3 -3 15 30 1 -2 -3 2
12 10 19 34 3 -2 -5 0
7 10 22 35 2 -3 -8 0
6 -3 19 32 1 -4 -9 -2
0 -2 16 35 0 -2 -6 -5
-9 -6 16 30 -3 -7 -9 -8
-9 -8 16 29 -1 -6 -8 -3
-3 -7 15 30 -1 -6 -6 -3
4 -2 8 24 -9 -14 -12 -9
6 -7 12 22 -7 -12 -11 -3
4 5 19 28 2 -3 -2 2
6 5 22 31 1 -4 -2 -1
9 2 21 30 -2 -7 -7 -6
2 -1 23 30 0 -7 -8 -5
-4 9 25 36 3 -3 -6 -4
-8 2 23 34 -1 -7 -9 -5
-4 4 20 30 0 -6 -8 -3
7 5 19 31 3 -4 -3 -2
6 8 15 28 0 -7 -5 -5
-6 -6 14 22 -2 -10 -10 -6
-8 -3 16 27 3 -6 -5 -4
-5 1 19 31 5 -3 -3 -3
2 2 20 29 3 -6 -8 -5
0 -2 21 29 5 -5 -8 -5
-2 7 22 36 7 0 -6 -4
-3 2 21 30 4 -6 -11 -7
-4 -2 19 27 3 -6 -11 -6
-7 -1 16 25 2 -6 -11 -7
-6 8 14 27 2 -6 -11 -7
8 4 14 23 3 -9 -13 -5
11 3 11 20 2 -7 -11 -7
2 -6 10 19 0 -9 -15 -10
-1 -9 9 18 -1 -10 -15 -9
-4 -5 15 24 7 -2 -7 -3
-2 12 18 32 13 6 1 -1
9 12 17 28 11 4 -1 -1
12 7 13 22 11 4 1 -1
4 2 12 18 9 3 2 -1
7 6 8 18 5 -1 -2 -6
5 7 10 17 6 -1 -5 -3
-2 6 17 24 15 7 4 5
0 9 20 27 15 10 6 7
-1 1 16 21 11 5 0 2
2 -5 13 17 7 0 -4 -3
-4 4 13 21 9 2 -1 -3
-3 3 13 19 9 2 -3 -2
5 3 11 16 10 3 -2 1
7 7 9 17 10 3 0 2
8 14 8 16 9 5 1 1
2 -1 6 8 7 1 -3 0
-12 -10 4 9 8 3 0 1
-2 -1 5 9 7 3 0 -1
7 12 8 12 9 4 0 0
7 7 8 9 9 3 -1 2
4 4 3 10 5 1 -2 -4
-1 -6 1 4 -1 -5 -7 -7
-3 -6 5 5 3 -1 -2 -1
-5 3 6 8 6 2 0 0
-4 7 5 9 5 1 -2 -1
-1 -1 6 4 4 0 -3 1
-2 2 9 9 9 6 5 3
-5 2 10 9 8 6 6 1
-2 7 8 7 7 5 4 0
5 0 7 4 7 6 3 0
4 8 7 8 8 8 5 -2
-3 3 6 4 4 5 1 -3
-4 -1 4 3 4 5 4 -1
-1 5 6 5 6 7 6 4
2 12 6 6 4 4 1 3
7 4 7 1 0 -4 -7 0
10 11 9 6 4 -2 -5 1
7 16 13 7 5 0 -4 0
3 19 15 7 6 0 -2 0
5 19 15 6 6 1 -2 0
7 22 14 11 7 4 2 -2
5 16 16 11 8 6 4 1
0 12 19 13 9 9 10 6
-8 13 21 15 11 12 13 10
-11 19 20 14 8 11 12 8
-6 18 22 8 7 8 9 11
17 32 23 11 12 13 13 15
21 34 15 9 8 8 8 6
23 42 15 9 7 3 3 4
14 33 21 13 13 7 6 10
-1 32 19 16 12 9 7 7
2 26 12 8 7 5 4 3
8 28 8 5 8 7 9 8
2 30 4 4 9 11 14 11
-4 33 1 2 6 10 14 11
6 31 -3 -6 2 7 12 11
6 27 -6 -6 3 11 15 12
12 26 -7 -6 3 11 11 10
14 24 -8 -6 2 8 8 10
11 21 -7 -5 4 9 8 14
15 42 -5 0 7 13 13 16
31 50 -7 -4 3 11 12 16
65 69 2 4 14 20 24 27
57 62 -4 -1 12 19 23 25
9 15 -22 -17 -6 3 7 8
-10 -14 -33 -31 -17 -10 -4 -2
-5 -9 -30 -24 -12 -4 1 1
-7 -3 -25 -19 -11 -3 1 1
2 4 -17 -15 -6 2 4 6
8 6 -16 -15 -6 0 3 6
7 12 -16 -11 -7 1 2 1
6 7 -13 -11 -9 -3 -2 -1
4 3 -13 -15 -13 -6 -5 -4
-6 0 -14 -15 -14 -8 -6 -6
-13 -2 -14 -16 -16 -10 -8 -7
-9 -14 -15 -22 -19 -14 -12 -6
-5 -8 -16 -22 -18 -11 -8 -5
-6 -5 -18 -23 -23 -15 -12 -11
-13 -12 -15 -19 -21 -13 -11 -10
-14 -13 -11 -13 -14 -10 -6 -6
-14 0 -8 -8 -11 -6 -5 -7
-5 -4 -9 -12 -14 -12 -10 -10
-3 -9 -13 -16 -16 -12 -9 -11
-8 -9 -11 -14 -12 -6 -5 -9
-5 -1 -8 -12 -12 -4 -2 -6
-2 -11 -12 -20 -19 -11 -9 -9
-7 -10 -10 -14 -14 -6 -7 -7
-6 -4 -9 -17 -18 -10 -14 -10
-7 -9 -13 -21 -22 -15 -18 -14
-14 -11 -10 -18 -17 -11 -13 -11
-16 -2 -9 -15 -13 -6 -9 -12
-9 -4 -12 -22 -19 -12 -14 -16
-3 -3 -12 -18 -15 -8 -10 -11
-4 -4 -10 -16 -13 -5 -8 -8
-6 -3 -10 -16 -15 -7 -8 -9
-4 -9 -12 -22 -17 -11 -10 -10
-4 -2 -12 -18 -14 -6 -5 -7
-7 0 -11 -18 -15 -6 -5 -8
-2 -6 -11 -18 -16 -7 -5 -8
-6 -4 -8 -18 -14 -5 -3 -7
-7 4 -7 -12 -11 -1 1 -7
-9 -5 -3 -8 -12 -6 -3 -9
-17 -12 5 2 -8 -6 -1 -9
-17 -8 14 15 -3 -5 -4 -10
-20 4 24 30 3 -4 -3 -9
-10 16 38 44 16 2 3 0
1 28 46 67 29 13 8 5
5 33 52 83 40 23 9 5
5 33 62 98 58 40 22 14
-6 33 73 108 85 67 44 28
-2 50 86 126 112 100 67 38
8 54 101 142 146 132 85 47
30 84 122 172 206 186 119 72
57 114 129 189 269 251 162 96
87 142 126 199 345 337 219 128
95 147 111 189 413 417 272 162
92 149 75 158 440 462 302 177
95 162 29 113 437 475 319 190
91 154 -32 40 376 429 302 187
73 117 -84 -51 269 332 246 158
51 85 -153 -183 136 218 180 118
38 57 -207 -327 -10 91 111 84
28 35 -243 -425 -144 -27 45 52
17 20 -256 -490 -234 -97 1 26
4 3 -254 -519 -298 -144 -32 2
-5 -23 -245 -541 -346 -185 -67 -20
-9 -32 -238 -525 -355 -201 -87 -40
-29 -51 -234 -496 -351 -209 -103 -58
-46 -74 -235 -471 -343 -215 -117 -72
-37 -76 -234 -441 -324 -208 -119 -73
-37 -56 -223 -395 -292 -187 -106 -69
-43 -52 -204 -356 -262 -171 -98 -62
-47 -57 -193 -325 -236 -159 -95 -62
-48 -57 -185 -298 -215 -148 -92 -63
-48 -43 -167 -262 -188 -129 -79 -56
-43 -42 -147 -234 -168 -120 -76 -51
-43 -34 -123 -196 -140 -99 -62 -43
-35 -23 -101 -164 -119 -85 -56 -39
-31 -18 -84 -140 -104 -77 -55 -38
-31 -12 -70 -121 -88 -68 -51 -33
-32 1 -55 -100 -75 -54 -38 -29
-26 -6 -46 -92 -71 -52 -39 -29
-22 -9 -40 -81 -61 -45 -33 -24
-17 -8 -36 -74 -56 -41 -30 -26
-15 -14 -37 -69 -58 -43 -34 -32
-23 -20 -27 -59 -51 -41 -32 -29
-25 -13 -19 -49 -42 -33 -24 -25
-17 -10 -14 -45 -41 -34 -28 -28
-12 -15 -7 -38 -38 -32 -27 -28
-18 -25 -5 -35 -31 -29 -25 -27
-17 -10 -3 -29 -28 -21 -19 -27
-21 -12 -1 -30 -29 -22 -20 -27
-20 -15 1 -28 -25 -20 -17 -23
-11 -13 -3 -27 -26 -20 -16 -22
-9 -15 -5 -29 -31 -22 -20 -25
-8 -27 -4 -33 -33 -29 -25 -26
-15 -24 -3 -32 -30 -25 -21 -25
-20 -21 0 -31 -30 -24 -20 -25
-18 -24 1 -30 -31 -25 -20 -25
-17 -25 2 -28 -28 -25 -19 -23
-20 -13 3 -23 -24 -21 -15 -24
-17 -13 2 -25 -28 -27 -23 -25
-13 -13 1 -26 -29 -27 -25 -23
-5 -7 -2 -28 -29 -27 -25 -23
-1 -6 -4 -30 -35 -31 -28 -29
-2 -18 -3 -34 -37 -39 -33 -32
-3 -10 -1 -29 -32 -32 -28 -31
-10 -13 6 -22 -28 -27 -22 -28
-14 -21 9 -20 -27 -26 -20 -25
-16 -23 9 -17 -23 -23 -16 -21
-22 -13 9 -11 -20 -16 -9 -19
-14 -15 8 -17 -25 -22 -13 -21
-12 -12 7 -19 -24 -22 -12 -20
-15 -14 5 -17 -22 -22 -11 -19
-10 -12 5 -18 -26 -24 -15 -23
-10 -22 4 -23 -28 -30 -23 -23
-15 -20 4 -19 -24 -28 -23 -24
-11 -15 6 -14 -25 -30 -27 -26
-3 -13 6 -16 -28 -33 -31 -29
-1 -12 7 -15 -22 -29 -28 -25
-6 -3 7 -10 -19 -25 -22 -24
-10 -17 3 -14 -24 -33 -29 -29
-8 -23 4 -14 -24 -31 -27 -27
-9 -13 7 -9 -19 -26 -23 -22
-6 -6 10 -3 -17 -22 -19 -21
-13 -22 10 -3 -16 -25 -23 -21
-17 -21 8 -2 -17 -24 -23 -24
-3 -9 12 4 -15 -24 -23 -26
4 -7 13 9 -14 -24 -23 -26
-3 -13 15 14 -8 -20 -19 -21
-6 -4 16 20 -6 -14 -12 -21
-10 -14 14 18 -9 -17 -14 -20
1 -9 12 17 -7 -17 -13 -18
-1 -11 10 18 -7 -16 -12 -17
-23 -25 4 16 -16 -23 -16 -23
-14 -27 6 14 -16 -28 -20 -20
-4 -9 10 25 -5 -20 -11 -16
-4 1 12 32 0 -19 -12 -18
-2 1 13 38 2 -21 -16 -20
1 -10 16 43 7 -20 -18 -20
3 9 19 52 12 -12 -14 -19
4 5 24 57 15 -9 -9 -13
4 -2 26 59 21 -2 -3 -8
0 -2 24 60 22 0 -1 -7
0 -4 23 61 20 0 -1 -9
-8 -21 22 58 18 -3 -5 -8
-7 -9 22 65 23 2 1 -7
-6 -1 23 69 24 1 1 -9
0 -1 23 72 24 2 1 -8
1 2 26 74 29 6 5 -4
-1 11 27 82 35 14 12 0
4 7 26 81 35 12 8 -1
8 7 26 82 37 12 9 1
10 14 27 85 38 11 9 2
8 22 27 86 36 10 9 1
1 12 28 84 38 8 7 4
1 13 28 86 43 15 10 4
7 19 31 90 46 20 13 4
9 16 33 93 48 22 14 6
12 17 35 95 51 26 19 11
8 28 31 95 48 28 22 9
5 18 30 86 43 24 19 8
12 15 27 83 43 26 24 10
8 23 27 86 47 30 28 13
10 31 29 87 46 31 29 13
20 16 27 79 42 24 23 12
14 19 26 79 44 27 25 13
5 23 29 79 44 28 27 13
10 22 29 80 47 31 28 14
9 24 30 81 52 35 31 19
9 33 29 82 49 35 30 14
9 24 25 75 44 29 25 13
8 21 25 73 45 31 31 18
7 21 22 71 43 32 34 17
-1 20 22 72 42 34 35 17
10 18 24 68 43 31 30 19
15 24 24 68 44 31 29 16
16 27 26 69 44 29 25 13
12 23 26 69 43 27 22 13
14 20 23 67 41 25 20 13
14 35 24 72 41 30 26 14
12 36 25 69 43 31 29 16
13 33 27 68 48 38 36 23
13 35 29 71 53 45 43 25
6 24 24 69 48 42 37 21
8 13 21 59 43 33 28 18
4 22 25 63 47 38 33 20
-3 20 27 64 48 37 32 20
8 21 24 62 45 33 26 18
17 26 23 58 45 31 28 19
16 33 22 60 45 38 32 18
18 29 24 55 42 35 30 17
14 21 26 53 43 36 33 20
10 20 25 50 42 36 34 19
13 26 28 51 41 38 36 22
6 12 26 39 35 30 30 19
-7 15 24 38 33 31 30 15
9 26 23 38 31 31 28 13
17 23 24 36 29 29 24 12
10 16 21 28 27 24 19 8
-6 9 16 26 24 24 19 5
-10 10 18 24 21 21 18 7
-5 10 20 23 22 22 20 11
-2 11 16 18 20 21 20 9
0 15 13 17 15 18 18 7
-5 -2 11 10 9 8 10 5
-5 6 16 13 15 14 15 9
1 13 18 11 15 14 14 6
2 4 18 8 13 13 11 4
0 3 18 10 15 13 11 3
-2 16 20 14 16 17 14 4
-3 9 19 10 9 12 7 2
-8 6 14 3 8 8 4 0
-8 3 14 4 12 11 8 2
-10 2 15 8 12 11 6 2
3 -1 15 3 6 2 0 0
11 4 15 2 5 4 4 1
-4 0 18 6 7 5 6 1
-6 -7 17 2 6 2 1 -3
4 -5 19 4 8 1 -2 -5
-1 5 21 10 12 6 4 -4
-2 -2 15 3 6 -2 -4 -8
-8 -4 18 4 10 0 -2 -2
-7 5 22 9 15 5 4 2
-18 1 23 11 14 6 4 2
-8 -4 23 6 13 3 3 2
-9 4 26 11 19 10 12 7
-10 -2 24 11 17 8 8 2
-6 -8 20 4 13 4 4 -1
-8 -4 22 4 14 4 4 -1
-5 6 24 12 17 8 9 -1
4 6 24 12 15 4 4 -2
5 8 22 10 15 3 0 -1
2 5 22 10 15 3 -2 -1
-6 2 21 10 13 2 -4 -3
-7 -5 23 8 14 0 -3 2
-3 4 21 7 15 2 -1 1
-11 1 21 7 11 0 -5 -4
-10 0 19 7 10 -3 -6 -5
-11 5 21 10 15 0 -2 -3
0 13 24 15 18 6 4 -2
7 10 24 11 16 3 2 -1
6 16 21 6 14 1 2 0
8 18 21 6 15 4 3 0
-6 2 19 4 12 2 0 -4
-14 -18 20 1 13 1 -2 -3
-15 -10 22 5 19 7 4 2
-17 -8 20 6 16 6 2 -1
-16 -12 20 3 16 4 0 -1
-11 -10 19 3 19 5 2 0
-3 4 19 9 22 8 5 -2
-5 -2 19 7 20 6 3 0
-6 -4 21 8 23 7 5 3
-6 7 22 9 25 11 10 6
-7 6 20 7 22 9 8 5
0 7 18 3 20 7 5 6
-5 9 16 6 23 8 6 3
-3 8 17 11 24 10 6 3
3 11 20 13 26 10 5 4
1 6 18 10 26 10 3 5
-7 6 13 7 22 8 2 0
-12 -4 10 0 17 4 -1 -3
-7 -6 11 2 19 7 4 0
-1 3 12 4 21 12 9 2
-1 8 11 1 16 8 6 0
-5 -1 11 -4 15 5 4 3
-6 7 14 0 21 12 11 7
-8 8 15 1 19 10 10 4
-3 5 20 3 20 11 12 6
-3 6 19 3 21 13 12 8
-5 13 19 6 21 12 12 6
-8 5 18 5 20 10 7 5
-10 -1 17 0 18 9 4 6
-14 3 15 2 18 10 8 7
-16 5 13 0 14 6 5 5
-9 -3 12 -5 14 4 3 6
-1 2 12 -3 16 7 6 4
-2 4 13 -3 15 8 7 2
-7 3 17 -2 18 10 10 5
-4 4 17 -1 22 14 14 8
-4 12 15 0 21 15 13 6
6 6 13 -5 16 8 5 1
9 10 17 -1 20 10 8 7
3 11 20 1 23 13 12 12
4 16 19 0 20 8 10 10
2 10 21 -1 20 4 7 12
-7 11 24 5 24 10 11 13
-5 21 26 4 24 10 10 11
-3 16 20 -5 19 4 4 7
2 18 21 0 23 9 10 12
3 31 25 6 25 14 14 13
6 27 25 4 24 13 13 15
4 23 28 5 27 18 18 19
-6 22 26 4 28 18 19 18
-3 21 29 5 25 14 16 14
1 16 33 2 23 7 11 15
8 23 29 1 23 6 10 13
12 30 30 2 22 8 10 12
11 30 29 -1 21 7 10 12
12 24 27 -4 21 9 13 14
9 32 24 -3 22 15 18 14
7 31 20 -7 22 17 23 19
18 34 17 -7 25 19 27 23
21 44 17 -2 30 26 33 25
21 48 19 -2 28 26 34 26
14 21 11 -14 20 13 24 22
-2 15 5 -18 15 9 21 16
2 18 3 -19 12 7 16 13
6 16 2 -22 9 5 12 13
9 19 0 -22 13 6 12 14
12 30 1 -16 17 12 17 15
12 25 -1 -18 14 11 17 15
1 14 -6 -23 11 9 18 15
9 16 -7 -24 11 12 22 17
15 15 -7 -25 7 9 21 16
11 -2 -10 -31 4 1 13 13
11 2 -11 -26 6 2 8 9
6 2 -6 -21 5 1 5 8
-4 -1 0 -18 7 0 5 10
-7 2 3 -15 10 3 9 12
-3 9 2 -14 9 4 11 10
0 1 1 -21 2 -3 6 7
3 -3 -1 -24 0 -4 6 4
1 -4 -1 -23 0 -2 6 5
-2 -5 -1 -24 -3 -7 3 2
0 -17 -1 -28 -5 -11 -2 0
-2 -17 1 -24 -2 -8 1 -1
-6 -15 5 -19 0 -4 5 1
-7 -15 5 -19 0 -6 5 1
-3 -15 8 -16 3 -5 5 2
-6 -9 7 -13 0 -6 4 -2
-4 -11 6 -15 -2 -10 -1 -3
-3 -17 6 -15 0 -8 2 -1
-2 -13 4 -16 -3 -8 1 -4
5 -5 5 -16 -2 -9 0 -3
2 -21 1 -21 -4 -12 -7 -4
1 -22 -1 -21 -4 -10 -6 -5
4 -13 3 -14 -3 -8 -3 -2
-1 -18 6 -11 -4 -12 -4 -3
-1 -19 6 -11 -1 -10 0 -1
2 -3 2 -12 -3 -10 0 -6
-1 -10 2 -16 -6 -14 -3 -6
-8 -19 3 -15 -1 -10 1 -3
-4 -12 1 -11 2 -5 5 -1
11 -6 2 -15 -1 -7 3 -2
13 -5 2 -22 -3 -8 0 -3
2 -11 0 -20 -1 -6 0 -7
-6 -24 -2 -19 -6 -9 -3 -10
-6 -28 -1 -19 -6 -10 -3 -10
-13 -30 3 -16 -2 -6 1 -5
-15 -14 8 -7 1 -2 5 -3
-16 -17 14 1 1 -7 1 -3
-19 -27 21 12 6 -10 -2 -6
-17 -12 29 27 10 -10 -3 -6
-7 7 42 48 23 -2 4 2
1 2 53 66 37 5 9 10
-4 3 60 85 51 18 19 12
4 17 70 97 62 33 28 17
22 40 85 110 87 59 48 30
9 44 101 127 121 93 72 47
18 60 119 153 160 136 101 59
19 53 129 174 212 185 128 72
20 63 134 188 274 248 168 95
44 92 128 193 354 337 229 130
63 124 114 189 434 434 294 171
76 132 87 157 477 491 333 199
90 157 39 116 488 516 355 215
95 172 -22 47 441 485 347 218
101 145 -71 -36 339 389 292 188
86 108 -136 -161 208 274 224 151
57 78 -200 -313 48 144 154 114
29 43 -238 -420 -106 8 80 81
24 23 -258 -488 -215 -82 26 52
15 3 -258 -516 -285 -139 -14 24
-9 -28 -247 -531 -351 -192 -56 -8
-18 -60 -237 -521 -372 -221 -88 -29
-24 -64 -228 -491 -363 -226 -100 -42
-32 -68 -218 -456 -347 -223 -106 -51
-38 -77 -215 -424 -330 -220 -113 -57
-38 -75 -214 -390 -303 -209 -111 -58
-39 -64 -202 -349 -270 -189 -104 -60
-33 -60 -184 -312 -239 -174 -100 -57
-33 -59 -178 -287 -216 -164 -100 -59
-38 -59 -167 -259 -194 -151 -93 -56
-31 -48 -146 -227 -172 -135 -84 -49
-26 -44 -122 -198 -144 -119 -73 -39
-29 -36 -102 -164 -121 -102 -61 -35
-28 -30 -84 -137 -108 -92 -58 -34
-21 -23 -70 -116 -95 -83 -52 -30
-22 -19 -57 -99 -76 -68 -40 -22
-19 -6 -46 -81 -67 -58 -32 -19
-22 -13 -40 -72 -61 -57 -35 -20
-17 -20 -34 -63 -53 -53 -31 -17
-12 -17 -25 -50 -42 -44 -25 -14
-18 -23 -20 -41 -44 -45 -28 -18
-19 -38 -17 -41 -41 -46 -31 -19
-18 -34 -12 -30 -34 -39 -27 -18
-19 -33 -6 -23 -33 -38 -29 -20
-10 -32 -2 -19 -31 -37 -28 -19
-8 -29 2 -15 -25 -32 -25 -18
-5 -20 3 -9 -24 -31 -23 -19
-3 -23 3 -5 -22 -33 -24 -16
-7 -31 1 -7 -21 -32 -24 -15
-8 -24 1 -7 -21 -30 -22 -15
-5 -22 4 -5 -23 -32 -20 -14
-7 -32 8 -7 -20 -32 -21 -12
-7 -28 7 -4 -18 -27 -18 -14
-12 -28 10 -3 -20 -28 -21 -17
-9 -34 10 -7 -21 -30 -25 -19
-10 -33 11 -4 -15 -23 -19 -15
-10 -21 10 0 -14 -21 -17 -16
1 -24 9 -2 -19 -27 -23 -17
3 -24 10 -2 -17 -26 -22 -15
-3 -22 10 0 -14 -23 -22 -14
1 -23 10 -1 -20 -28 -24 -16
2 -30 13 -2 -19 -28 -26 -15
-2 -24 14 2 -17 -25 -22 -15
7 -18 16 7 -18 -25 -21 -15
1 -27 17 8 -17 -26 -22 -15
-5 -27 18 9 -11 -20 -17 -13
-12 -19 18 15 -10 -16 -12 -12
-15 -28 14 9 -16 -23 -18 -14
0 -22 11 8 -15 -23 -19 -15
9 -13 11 10 -15 -21 -17 -14
1 -24 10 9 -22 -28 -23 -18
-3 -38 10 4 -22 -34 -28 -19
-2 -22 11 7 -19 -29 -27 -20
-5 -13 14 12 -16 -27 -26 -19
-9 -20 20 19 -11 -24 -24 -15
-10 -17 19 19 -7 -23 -23 -16
-12 -17 12 19 -15 -24 -25 -22
-11 -31 6 10 -22 -32 -32 -26
4 -26 4 8 -21 -34 -32 -26
3 -11 12 18 -13 -26 -24 -17
-1 -16 16 25 -13 -25 -23 -15
9 -25 12 22 -13 -33 -30 -20
-6 -28 14 28 -9 -26 -24 -19
-13 -32 16 31 -7 -24 -23 -18
-12 -29 20 37 -3 -19 -19 -13
-10 -23 22 41 3 -13 -15 -11
-14 -24 16 42 0 -15 -16 -16
5 -20 14 38 -4 -20 -19 -16
10 -22 15 40 -1 -17 -15 -13
12 -16 12 40 -1 -16 -14 -13
8 -18 11 43 -3 -18 -16 -15
10 -16 18 47 4 -13 -13 -8
8 -8 20 54 7 -7 -10 -10
-4 -22 16 57 5 -13 -17 -17
-5 -18 21 66 10 -12 -17 -15
-2 -16 22 71 16 -7 -14 -14
1 -8 20 76 15 -6 -13 -14
8 -10 24 79 17 -7 -11 -9
10 -11 24 78 19 -5 -10 -6
5 -14 22 81 22 -3 -7 -6
0 -18 22 86 19 -3 -8 -7
3 -14 23 84 22 -6 -12 -7
3 -6 25 90 26 1 -7 -5
4 -7 28 96 29 4 -5 -4
6 -8 28 99 31 5 -5 -1
7 -6 28 100 37 11 0 2
6 4 25 105 36 12 0 0
9 -3 26 103 36 7 -4 1
7 -3 27 105 41 13 -1 4
10 7 29 111 48 19 6 9
12 10 27 109 42 15 0 5
10 1 29 109 45 15 0 7
7 9 33 114 49 21 6 10
8 11 35 116 48 22 7 10
9 7 34 113 47 19 5 9
11 13 35 112 52 24 12 12
15 23 33 115 50 28 16 13
16 14 30 110 47 26 14 13
19 18 29 104 47 25 15 13
14 25 29 103 48 29 20 15
14 19 28 103 43 28 18 15
13 11 27 100 46 28 17 17
9 15 30 105 50 34 23 19
19 25 31 105 48 33 20 18
18 25 32 103 47 32 19 17
13 21 33 104 51 37 25 20
12 34 31 105 46 38 29 19
5 22 29 100 43 35 27 19
16 19 28 97 43 36 30 22
18 26 27 93 41 37 30 21
16 29 24 92 35 32 28 19
18 17 24 89 36 31 28 20
14 22 24 89 38 35 30 21
10 23 24 86 34 31 20 16
17 15 23 82 33 27 12 13
32 19 21 79 32 27 11 12
28 26 18 82 30 28 15 9
24 21 16 78 29 26 15 13
17 20 20 82 37 35 25 21
10 27 22 82 38 39 29 23
10 27 23 82 37 37 29 23
13 22 26 81 40 37 28 26
16 31 27 84 41 39 30 25
22 38 29 84 42 40 28 24
24 34 26 75 37 33 20 19
16 21 21 68 34 31 17 17
12 34 18 70 32 32 20 14
15 28 20 65 31 29 17 15
8 24 22 66 35 33 21 19
10 26 19 62 33 32 22 16
17 30 22 61 29 30 20 17
22 31 27 57 32 30 21 22
20 34 28 57 34 33 24 21
19 34 27 57 33 33 24 20
8 18 22 44 26 25 16 14
14 18 17 37 22 25 16 13
38 50 22 46 27 34 24 17
31 44 19 38 23 27 18 14
10 18 14 29 16 18 11 10
2 13 10 25 12 13 7 6
4 12 9 23 6 6 0 2
24 17 14 24 11 7 2 6
24 25 17 28 13 11 5 6
2 4 10 21 3 4 -2 -4
2 2 12 20 1 3 -1 -3
-2 0 12 19 3 6 2 -3
-2 7 9 20 -1 6 0 -6
7 8 8 17 -4 1 -3 -5
5 10 6 14 -4 -2 -6 -5
-4 6 6 15 -4 -2 -6 -5
-9 0 6 15 -8 -5 -12 -9
-6 -6 10 14 -4 -4 -10 -4
-3 3 12 17 -2 -1 -5 -3
9 13 15 21 -1 0 -6 -5
7 10 16 19 -3 -3 -8 -6
1 4 15 19 -2 -4 -9 -8
-8 11 9 17 -9 -8 -14 -15
-1 2 9 17 -9 -8 -12 -13
2 1 11 15 -7 -8 -9 -9
5 10 13 19 -7 -6 -9 -8
4 5 12 18 -11 -12 -14 -12
-1 -7 14 16 -9 -15 -16 -10
0 2 17 19 -6 -13 -14 -9
1 6 15 20 -8 -14 -17 -12
0 2 15 21 -7 -15 -17 -11
11 4 15 24 -4 -10 -13 -9
10 12 13 26 -5 -8 -10 -10
-3 6 15 26 -4 -7 -8 -8
-8 -1 13 24 -2 -5 -5 -5
-8 2 12 23 -3 -4 -3 -6
-6 3 14 23 -4 -6 -4 -5
-11 -4 18 22 1 -3 -4 -1
-10 7 17 24 3 -2 -3 -2
-9 9 18 24 1 -3 -6 -6
-5 5 18 23 2 -5 -9 -7
-1 7 15 23 3 -2 -7 -8
2 19 16 27 3 0 -6 -8
3 16 13 22 0 -4 -12 -8
0 8 14 24 4 -1 -10 -3
1 16 10 23 3 -1 -8 -6
6 15 8 19 -4 -8 -14 -11
4 -3 12 20 2 -4 -11 -6
-1 6 16 25 7 2 -6 -3
0 12 14 24 6 2 -7 -5
-2 1 16 24 6 1 -7 -3
-4 8 15 24 10 5 -3 -2
-10 19 16 27 11 9 0 -3
-9 9 17 27 13 9 1 0
2 8 12 23 11 7 -2 -2
8 16 11 23 11 8 0 -1
6 13 15 23 10 6 0 2
-1 -2 13 19 10 4 -3 2
1 6 14 23 12 7 2 2
2 10 14 24 12 8 3 0
3 5 15 23 13 8 3 0
-1 6 12 21 15 10 5 2
3 14 11 25 14 10 3 -1
14 14 10 21 12 7 -4 -2
6 11 11 22 15 8 -6 1
-1 18 8 20 14 8 -7 -1
0 6 8 17 9 5 -8 -4
11 2 10 12 10 3 -9 -2
13 13 13 18 13 8 -4 0
9 14 14 21 13 9 -3 0
8 7 14 18 10 6 -6 -3
13 10 11 19 12 9 -3 -2
8 15 8 19 9 8 -4 -4
3 5 5 17 7 4 -6 -4
3 8 5 19 9 6 -4 -2
-2 14 4 19 10 7 -2 -2
-3 5 3 14 4 2 -7 -5
1 -7 4 8 5 1 -8 -2
-1 2 5 10 9 8 -3 -1
-2 2 4 10 8 9 -3 -3
12 5 3 7 4 6 -6 -5
11 8 5 7 9 11 -2 -2
1 9 1 6 3 7 -6 -8
7 7 3 4 4 7 -8 -6
4 7 3 7 7 10 -4 -3
2 18 6 11 11 15 1 0
-3 13 11 14 12 15 1 2
-16 -3 11 11 11 12 -2 2
-17 10 14 19 16 15 3 4
-9 17 18 24 17 16 3 5
3 21 20 22 13 14 1 3
3 26 19 22 18 19 7 6
-7 22 18 24 15 19 9 5
-4 8 13 14 7 11 3 1
-5 12 15 16 10 14 7 4
-5 19 17 18 12 17 10 5
-7 15 17 16 7 10 2 1
-9 10 23 18 12 11 0 7
-13 20 26 23 17 15 4 7
-12 21 25 22 14 15 3 6
-4 18 20 17 11 12 1 4
-6 25 18 16 13 16 5 7
-6 32 17 19 14 19 10 9
-2 31 14 16 14 20 13 12
1 30 6 8 11 17 12 11
7 41 4 8 11 19 14 12
11 36 2 8 9 18 12 11
8 25 0 3 9 15 7 11
5 30 -4 3 5 14 6 9
4 29 -6 1 2 13 5 8
7 26 -11 -4 -1 11 3 8
10 29 -13 -4 2 15 8 9
12 36 -14 -1 0 16 9 8
14 30 -15 -3 -1 16 8 9
8 23 -16 -5 -2 16 7 9
12 27 -18 -7 -2 15 6 6
18 23 -21 -11 -9 7 -2 2
19 13 -23 -18 -13 2 -6 0
22 18 -19 -10 -8 9 -1 3
12 22 -16 -7 -7 9 -2 1
5 17 -16 -9 -9 6 -6 -1
7 16 -16 -9 -8 7 -5 -1
4 15 -16 -7 -8 9 -3 -2
0 6 -15 -10 -11 5 -6 -3
0 8 -19 -13 -14 3 -7 -6
-5 8 -17 -11 -12 4 -5 -6
-1 5 -14 -11 -14 2 -7 -5
8 1 -13 -13 -13 1 -8 -5
11 4 -14 -13 -14 0 -8 -9
11 8 -9 -10 -12 1 -9 -8
-1 -1 -9 -11 -14 -3 -12 -10
-10 -6 -9 -11 -12 -2 -8 -9
-12 -3 -13 -13 -16 -3 -11 -14
-8 -6 -12 -14 -17 -4 -13 -14
-3 0 -16 -16 -18 -6 -13 -14
-3 7 -12 -11 -14 -1 -7 -11
-7 1 -10 -11 -16 -6 -13 -11
-9 -4 -8 -12 -14 -5 -14 -9
-15 -2 -13 -14 -18 -8 -20 -16
-11 -6 -14 -18 -21 -12 -24 -19
-12 -9 -15 -21 -22 -13 -24 -17
-23 -13 -14 -20 -17 -7 -18 -13
-29 -8 -11 -16 -15 -3 -12 -11
-14 -10 -14 -22 -19 -7 -16 -12
2 -3 -15 -24 -18 -7 -14 -10
1 3 -14 -21 -14 -4 -11 -8
-3 -5 -16 -25 -20 -11 -16 -11
-9 -15 -16 -28 -19 -13 -19 -10
-9 -7 -14 -23 -14 -8 -14 -9
-3 7 -12 -20 -14 -8 -19 -11
0 -4 -16 -24 -18 -14 -27 -15
7 -1 -13 -19 -12 -8 -22 -12
4 9 -7 -9 -9 -3 -16 -9
0 -1 -4 -5 -12 -9 -22 -12
-2 -7 1 2 -11 -13 -23 -16
-7 1 14 21 -2 -9 -19 -14
-15 7 26 37 8 -6 -16 -10
-15 3 36 56 22 0 -12 -4
-9 19 48 80 40 17 3 4
-7 30 57 88 49 29 10 9
-1 37 69 100 73 55 27 22
3 50 86 118 108 93 56 40
8 65 96 139 136 124 74 47
21 66 111 162 189 169 101 64
39 81 118 175 250 229 140 85
55 106 113 177 323 309 194 116
74 133 103 175 401 398 253 152
96 151 77 155 455 464 299 185
109 177 29 119 469 493 323 198
101 175 -32 55 431 474 320 204
89 140 -86 -35 326 386 273 180
86 109 -154 -161 194 272 209 145
70 91 -216 -305 44 146 140 108
37 57 -259 -418 -106 10 63 72
24 27 -275 -493 -215 -83 6 41
10 10 -276 -528 -284 -138 -33 14
-6 -17 -267 -549 -346 -189 -75 -14
-15 -45 -259 -546 -369 -217 -101 -35
-28 -51 -249 -512 -361 -221 -110 -49
-38 -55 -238 -471 -344 -216 -112 -54
-37 -65 -235 -440 -328 -213 -116 -59
-38 -60 -227 -403 -297 -194 -110 -56
-38 -41 -213 -363 -268 -176 -100 -53
-37 -46 -204 -334 -244 -167 -100 -56
-25 -52 -197 -307 -222 -157 -103 -60
-25 -43 -179 -271 -195 -140 -95 -55
-31 -37 -155 -234 -171 -125 -87 -46
-30 -30 -126 -196 -139 -105 -74 -35
-28 -16 -102 -157 -113 -86 -62 -29
-25 -12 -84 -128 -100 -76 -59 -28
-34 -20 -70 -112 -89 -72 -56 -26
-27 -9 -56 -96 -74 -59 -45 -19
-14 0 -51 -84 -71 -54 -43 -20
-9 -11 -47 -76 -68 -53 -45 -23
-8 -17 -43 -68 -60 -49 -43 -22
-5 -6 -34 -54 -49 -40 -34 -17
-4 -9 -29 -49 -52 -42 -38 -18
-11 -24 -25 -47 -47 -42 -38 -17
-24 -28 -22 -40 -43 -38 -38 -20
-18 -21 -13 -26 -37 -33 -34 -18
-14 -25 -10 -25 -34 -33 -34 -17
-12 -22 -8 -20 -28 -26 -28 -16
-10 -7 -8 -16 -29 -26 -25 -17
-3 -7 -7 -17 -27 -26 -25 -14
-6 -12 -6 -16 -25 -23 -22 -12
-7 -12 -8 -15 -26 -24 -22 -14
-5 -15 -8 -15 -32 -31 -29 -18
-8 -19 -7 -16 -28 -30 -29 -17
-17 -23 -5 -12 -26 -27 -26 -17
-11 -22 -5 -11 -27 -29 -29 -19
-4 -23 -3 -10 -29 -32 -34 -19
-10 -21 -3 -10 -24 -26 -29 -17
-14 -10 -5 -10 -29 -27 -29 -19
-14 -18 -3 -9 -27 -27 -29 -16
-13 -16 0 -6 -22 -23 -23 -11
-6 -10 -2 -5 -23 -23 -24 -14
2 -15 -5 -7 -33 -34 -34 -21
4 -23 -1 -5 -27 -32 -33 -18
0 -19 0 -1 -26 -30 -31 -18
-1 -15 2 2 -26 -30 -32 -21
-9 -18 4 3 -26 -32 -31 -18
-12 -15 6 8 -17 -24 -24 -13
-12 -8 8 14 -18 -21 -20 -11
-15 -14 9 13 -19 -22 -21 -10
-12 -16 6 8 -19 -23 -22 -11
-11 -12 4 7 -19 -22 -22 -12
-10 -17 4 9 -25 -28 -28 -15
1 -21 5 9 -22 -30 -32 -16
1 -17 7 15 -19 -26 -29 -16
-1 -18 9 19 -19 -25 -30 -17
-1 -22 9 17 -20 -28 -33 -17
-6 -20 9 19 -13 -21 -28 -14
-16 -20 7 21 -17 -22 -28 -16
-13 -23 8 20 -17 -23 -28 -16
-11 -18 6 16 -16 -26 -28 -14
-10 -14 10 23 -11 -20 -24 -12
-12 -23 7 24 -19 -28 -31 -17
-12 -32 6 23 -17 -29 -31 -17
-6 -19 10 31 -12 -23 -26 -14
-6 -12 14 39 -9 -19 -23 -12
-2 -16 17 42 -7 -19 -22 -8
5 -5 18 47 0 -12 -15 -5
1 -4 12 48 -5 -16 -18 -10
-10 -18 10 45 -8 -22 -24 -13
-12 -16 11 46 -5 -21 -23 -11
-13 -12 11 52 -2 -19 -22 -12
-12 -20 12 55 -6 -23 -27 -16
-9 -25 14 57 -2 -23 -25 -13
-7 -17 17 65 2 -17 -20 -11
-15 -19 18 69 3 -17 -22 -13
-18 -27 20 70 4 -18 -23 -11
-13 -17 23 78 15 -8 -13 -4
-6 -3 22 84 14 -5 -11 -6
2 -1 19 81 12 -9 -14 -6
2 -3 20 86 17 -5 -9 -3
4 7 24 93 26 1 -5 1
4 2 26 96 24 -3 -12 2
10 -6 24 93 25 -6 -18 -1
16 2 26 98 29 -2 -14 -1
0 0 31 106 32 3 -9 0
-18 -10 33 109 36 5 -7 6
-10 -3 31 111 42 12 0 8
4 13 30 116 40 14 4 7
5 15 27 112 40 12 1 8
8 12 26 112 42 15 4 11
2 12 29 116 47 22 11 14
2 8 28 113 42 16 2 11
1 3 32 115 50 19 3 15
-5 8 36 121 53 24 8 18
0 14 37 121 51 22 6 16
18 15 33 116 46 19 5 14
20 20 34 118 52 28 15 17
15 25 37 123 54 35 22 22
10 17 35 119 51 32 22 23
2 24 37 115 55 35 27 28
9 35 36 115 56 37 31 27
14 25 30 111 48 30 24 22
10 16 33 112 54 33 24 27
9 28 32 110 53 33 19 25
4 27 34 110 51 32 15 24
5 15 35 108 51 31 15 26
5 17 34 107 54 35 19 27
12 26 31 108 50 35 21 25
22 24 29 103 47 33 20 25
24 22 26 99 47 32 21 24
15 26 28 101 50 37 26 27
7 18 26 99 44 30 21 25
7 13 26 96 47 30 21 26
9 24 29 99 49 34 24 26
9 32 30 99 47 33 23 25
11 26 29 96 46 31 21 26
11 26 34 102 55 42 32 35
18 32 29 100 50 40 31 31
26 32 28 92 48 37 28 30
10 23 26 88 49 37 30 31
5 28 26 90 50 40 34 32
10 33 25 88 46 36 31 31
22 30 28 86 51 38 32 32
21 39 33 92 54 44 39 36
18 34 34 89 51 42 37 33
15 20 30 79 46 36 31 28
15 26 30 77 48 38 33 29
15 31 26 73 41 36 30 24
6 17 21 62 36 28 22 20
9 15 18 56 35 27 20 22
16 25 16 56 33 28 21 22
14 22 17 54 28 22 16 20
1 9 21 51 32 23 17 23
-3 14 25 52 33 27 20 24
4 18 25 53 32 26 18 22
19 22 24 50 29 22 14 19
27 34 25 52 34 28 20 22
16 34 25 52 31 27 22 22
-5 7 17 38 21 17 12 15
-13 -1 16 34 21 15 11 17
-9 9 17 38 22 18 17 17
-12 3 16 33 16 11 11 14
1 -1 16 30 17 10 11 15
3 9 16 31 16 11 12 13
0 6 17 32 13 8 8 12
2 2 18 29 12 6 4 12
1 7 18 28 14 9 8 13
0 9 17 30 10 7 7 11
-3 2 16 28 10 5 7 12
-5 -1 17 26 10 4 7 11
-7 2 16 28 10 5 7 10
-6 -2 15 24 3 -4 -2 6
-2 -9 17 24 7 -4 -3 8
5 4 20 28 8 -1 -1 7
7 5 19 30 6 -3 -3 4
-5 -9 22 29 7 -4 -4 5
-7 2 21 29 11 2 2 7
-8 10 24 33 11 2 4 9
-4 5 20 28 6 -4 0 7
-2 2 16 26 4 -6 -1 6
-10 -1 16 26 3 -4 1 5
-5 -4 18 27 0 -7 -3 5
0 -4 20 26 5 -5 -2 6
-6 -6 20 27 5 -5 -1 3
-1 -1 22 29 4 -6 0 2
-1 -5 24 30 6 -6 -1 4
-3 1 24 33 10 1 4 6
-5 7 26 38 9 2 6 7
-7 -1 23 35 8 -2 2 6
-5 2 23 34 10 -2 2 9
-1 11 19 35 8 -2 1 5
-2 0 20 33 4 -11 -8 2
-4 -7 22 32 7 -10 -7 6
-10 2 22 33 7 -8 -6 4
-10 3 24 34 6 -7 -6 1
-6 -3 25 33 7 -8 -6 3
-5 0 25 35 12 0 2 7
-16 9 29 44 16 7 8 10
-9 9 28 42 17 5 7 12
1 9 22 33 14 1 3 9
4 7 20 35 14 4 5 8
-3 0 20 34 11 -1 1 5
-4 -1 25 35 15 3 3 11
6 8 26 38 16 6 5 10
14 11 26 38 15 6 5 9
12 7 26 36 14 5 6 9
14 18 27 39 22 14 13 16
5 21 26 40 22 15 17 15
-5 2 22 30 17 10 11 12
-3 -1 18 26 15 7 10 11
10 23 26 39 25 21 23 20
46 47 33 45 28 23 25 25
57 52 35 45 32 25 22 27
-3 3 19 31 16 10 7 9
-28 -20 13 24 8 3 -2 1
-16 -12 18 24 11 5 1 6
0 9 20 29 19 13 10 11
-10 14 18 30 15 12 9 9
-21 -2 13 23 10 7 3 6
-30 -17 9 18 7 3 -1 4
2 9 14 23 12 11 7 9
9 10 15 24 10 9 6 10
-14 -15 12 17 9 5 4 8
-10 -11 11 16 6 6 4 5
-6 -9 9 16 4 5 3 2
-9 -9 8 14 3 3 1 3
-11 -2 12 19 10 12 10 9
-9 11 13 20 8 11 9 7
-1 1 11 16 6 7 5 6
4 0 10 13 5 6 7 7
1 7 11 15 7 10 9 8
0 2 10 12 2 4 3 6
1 -4 11 11 5 3 1 8
3 4 14 15 6 5 4 9
1 3 15 14 6 5 3 9
9 7 14 11 4 1 1 8
9 14 13 13 7 7 6 9
5 14 15 18 7 9 8 10
7 8 13 13 5 6 6 9
12 10 13 11 5 5 7 10
7 21 14 14 7 8 10 10
-1 18 15 12 2 3 5 8
-4 10 22 13 9 8 9 14
2 20 26 18 10 11 11 15
8 25 27 19 10 11 11 14
4 17 29 19 11 12 13 16
-3 13 28 19 13 14 16 16
3 21 24 20 8 11 12 12
8 23 27 19 11 11 12 17
7 22 27 17 13 11 15 18
2 30 31 23 16 16 20 21
-2 20 30 20 10 8 13 17
-2 14 31 19 13 8 12 19
2 24 35 23 15 12 16 22
0 26 33 21 13 10 14 20
-1 21 31 15 10 6 12 19
5 27 31 18 15 14 20 23
10 39 27 18 15 15 21 22
13 36 23 14 16 15 22 25
18 32 16 10 15 15 24 25
21 44 16 12 18 18 26 26
13 33 13 9 15 12 18 23
14 25 10 3 15 11 14 22
22 36 9 3 13 12 14 20
20 34 11 9 16 13 15 23
18 27 8 5 11 7 10 21
15 32 3 4 10 8 12 19
-1 26 -1 3 6 4 10 16
3 16 -1 2 7 4 11 17
24 22 -6 -2 4 3 11 17
25 29 -7 -2 4 4 14 16
31 20 -9 -4 -1 -1 9 15
28 18 -6 -6 4 2 9 17
21 15 -8 -10 1 2 8 12
12 16 -8 -8 1 2 7 11
10 10 -6 -7 1 0 5 13
10 16 -3 -3 5 6 10 14
0 10 -1 -1 3 4 9 12
1 5 0 -4 1 -1 4 10
-1 1 -1 -7 -1 -4 3 9
2 7 1 -3 2 -1 5 9
5 1 0 -8 -4 -10 -3 6
2 -9 -2 -12 -6 -11 -5 4
-5 -9 -3 -11 -7 -10 -5 -1
-6 -8 1 -8 -6 -8 -3 2
-4 -14 -1 -12 -9 -12 -8 0
6 -6 0 -9 -4 -8 -2 0
6 0 1 -6 -5 -9 -3 -1
7 -1 4 -5 -2 -7 0 2
4 -4 2 -8 -3 -8 0 3
-15 -16 -1 -7 -6 -8 -1 -1
-13 -19 -1 -11 -8 -13 -8 -2
-13 -20 2 -10 -3 -7 -5 2
-2 -7 4 -7 -1 -5 -2 2
